Raman Shift (cm-1),Fitted Intensity
217.02243211472887,0.4075625641632436
217.78187470325793,0.40537865586198263
218.57577103188305,0.40319881769551974
219.33508664514375,0.40120833813815937
220.1288502435491,0.3992219305899941
220.88803891339194,0.3974084104462652
221.68166981485774,0.3955989272646378
222.44073157310413,0.3939472236491026
223.23422981090334,0.39229947396413184
223.9931646893856,0.3907956383882647
224.78653029677662,0.38929561771757504
225.5453383272943,0.3879267807546115
226.33857133753554,0.3865615582439277
227.09725255188823,0.38531582862988645
227.89035299821262,0.3840734483315952
228.64890742819625,0.38293982456082937
229.44187534382945,0.38180921887282027
230.20030302121813,0.3807775116258644
230.9931384393858,0.379748425281029
231.7514393959391,0.37880918925726986
232.54414234984506,0.3778721124790825
233.30231661733342,0.37701658640457
234.09488714016334,0.3761626960339889
234.8529347503245,0.37538274978180486
235.64537287527492,0.37460385734153057
236.40329385984296,0.3738919452434345
237.1955996200777,0.373180451042103
237.95339401078672,0.3725295705908903
238.7455674394696,0.37187842308575186
239.50323526802458,0.3712820783303769
240.2952763983085,0.37068473806667135
241.05281769641442,0.3701369070901086
241.8447265614377,0.3695873146204007
242.60214136079594,0.3690824205659914
243.3939179936824,0.3685749678261765
244.15120632596518,0.3681078530033272
244.94285075983498,0.36763735768541794
245.70001265672545,0.3672032603419422
246.49152492468056,0.36676494285879163
247.24856041783278,0.36635947625641885
248.0399405529788,0.3659489389413707
248.7968496740432,0.3655680724135953
249.58809770945663,0.3651812806400612
250.34488049007632,0.36482132234919135
251.1359964588264,0.3644545872918284
251.89265293063363,0.3641121684350648
252.6836368657896,0.3637621312268042
253.44016706039474,0.3634341914704119
254.23101899500762,0.36309780853830786
254.98742294402837,0.36278158248486597
255.77814291113827,0.36245611187331683
256.5344206461632,0.36214911639023556
257.29063668807066,0.361845811954478
258.081160231417,0.3615321271611812
258.8372501063641,0.3612348535598328
259.62764176439305,0.36092648426441204
260.3836055039428,0.3606334101714498
261.1738653096545,0.36032857009133407
261.92970294537736,0.36003810697658406
262.71983093176095,0.3597352581811035
263.4755424952018,0.3594460498948677
264.26553869523195,0.35914389205029323
265.0211242179357,0.35885480464571246
265.81098866458706,0.3585522644718607
266.5664481780841,0.3582623761971618
267.3218460985445,0.3579718223769739
268.11151444011193,0.3576671884744188
268.8667863982955,0.35737483325937786
269.6563230684915,0.3570680642276318
270.41146909588497,0.3567734711696604
271.2008741276368,0.3564642049782977
271.9558942557451,0.35616711551464764
272.7451676819728,0.3558551709815473
273.5000619422826,0.35555549462990965
274.25489467866646,0.355254568808956
275.04397221986073,0.3549386656852053
275.79867913530325,0.3546353084895379
276.5876251528571,0.354316994519212
277.3422062787977,0.3540114910334641
278.13102080559474,0.35369113539328934
278.8854761734874,0.35338390431581984
279.6398700711143,0.3530760187444792
280.42848888367735,0.3527535943469139
281.18275707005523,0.35244483067104176
281.97124447364695,0.3521218448564189
282.7253869802007,0.3518129110224777
283.51374300766474,0.3514901568492418
284.2677598657974,0.35118185958729353
285.0217153072408,0.3508741943472844
285.80987579108114,0.35055346301789986
286.5637056308515,0.3502477970278183
287.35173482025493,0.34992967448945256
288.1054390897334,0.349627017131485
288.85908198071775,0.3493262177946121
289.64691574807875,0.3490140183713625
290.4004331154756,0.34871784659273036
291.18813567003235,0.3484110810431476
291.9415275452084,0.3481206881249003
292.69485808003446,0.34783355199101307
293.48236533402815,0.34753715999995055
294.2355704233014,0.3472575888565687
295.0229465460434,0.346969748225489
295.77602622109407,0.34669897670383926
296.52904459392084,0.3464329622481024
297.31622553748093,0.34616026902003155
298.0691185427131,0.345904922606506
298.8561684365195,0.34564404232418866
299.6089361054619,0.34540062675118255
300.3616425102773,0.34516350297200377
301.1484973461811,0.34492265385873194
301.9010784612947,0.34469933281519294
302.6878023288664,0.34447356468556833
303.44025818556474,0.3442652869433826
304.19265281618937,0.34406480889053737
304.9791817470432,0.3438638705804911
305.7314511658042,0.3436802404489926
306.5178492096784,0.34349753405557615
307.269993447826,0.3433319258315619
308.0220764979349,0.34317554444156184
308.80827972617044,0.3430222097937173
309.56023764218116,0.3428855268147313
310.3121343928833,0.34275886671486744
311.09814287786503,0.3426374373707455
311.84991454096235,0.34253205116909585
312.63579226885486,0.3424333892889349
313.3874388755503,0.342350270836115
314.1390243549249,0.3422783837094954
314.92470746048275,0.3422154734536354
315.6761679299125,0.34216722865488597
316.42756729471876,0.34213085487191575
317.21305585022856,0.3421057324276458
317.96433025152146,0.34209424087597096
318.71554357088826,0.3420951922184822
319.5008376486003,0.34210967804573006
320.25192605085977,0.3421366096249261
321.03708954970716,0.3421786079036068
321.7880530660077,0.3422321752988431
322.53895553829716,0.34229898317551594
323.32392468004764,0.3423831289854366
324.07470231274783,0.34247742558118494
324.8254189240979,0.3425853436791224
325.6101937809108,0.3427128502792137
326.3607855990158,0.34284896354686567
327.1113164184244,0.34299900845010844
327.8958970624226,0.34317086356995724
328.6463031349085,0.34334966735085465
329.39664823133353,0.3435426445212079
330.18103473459996,0.3437596183379939
330.9312551304065,0.3439817818643332
331.68141457278034,0.3442182959986755
332.4656070073652,0.34448095336674245
333.2156417953993,0.3447469542715771
333.965615652618,0.3450274235650085
334.74961409053867,0.34533614023309334
335.4994633396673,0.3456462812767311
336.24925168059053,0.345970955300332
337.0330561938208,0.34632593779248827
337.7827199728854,0.3466803669771348
338.53232286633283,0.3470493478246744
339.3159335268283,0.34745065660527263
340.0654119046303,0.3478493902977406
340.81482941939976,0.34826265660500233
341.5982462990578,0.34871023209662244
342.34753934436594,0.34915318073122864
343.09677154921883,0.3496106141254194
343.87999471991134,0.3501043051020846
344.62910250146524,0.3505913009931519
345.378149465123,0.3510927144890561
346.1611789986855,0.3516323083264586
346.91010158518475,0.3521631350829467
347.65896337633967,0.35270830290762395
348.441799344575,0.3532935571379048
349.1905368046828,0.3538679801422747
349.9392134919908,0.3544566684418824
350.68782941390236,0.35505959904910733
351.4704083690158,0.3557051404234807
352.21890002110376,0.3563371382848615
352.96733093031435,0.35698331942632267
353.749716487142,0.35767402162487305
354.4980231725931,0.35834917183121545
355.24626913768225,0.3590384705016708
356.02846136790686,0.3597742238172258
356.77658315527515,0.3604924527519622
357.5246442447824,0.361224829080938
358.27264464382097,0.36197136134585506
359.05458017785713,0.36276697729472135
359.8024564602965,0.36354251241948227
360.55027207475723,0.364332260932627
361.3320144489553,0.3651731370564154
362.0797059928009,0.36599205880574714
362.82733689114684,0.3668253047171286
363.60888617707315,0.3677117945280383
364.3563930507662,0.36857450037447725
365.1038393014278,0.369451701331139
365.85122493641757,0.3703434676517074
366.63251784256136,0.37129142655937786
367.3797795139326,0.3722132352453276
368.12698059208924,0.3731498687473087
368.8741210844055,0.3741014276699807
369.6551577368991,0.37511231552439234
370.402174326573,0.37609474996266395
371.14913035283826,0.37709246466088964
371.92997417845254,0.37815201199471243
372.67680634796125,0.37918140368582226
373.42357797648947,0.38022650471440633
374.1702890713932,0.3812874722616784
374.95087686424813,0.3824138097380343
375.69746416330963,0.38350775474001414
376.44399095116023,0.38461809414814035
377.1904572351632,0.38574501722064986
377.97078912116194,0.3869411094506345
378.71713167018606,0.3881025753513995
379.46341373775795,0.38928124819158816
380.20963533121903,0.3904773475157461
380.9897114361884,0.3917466936861846
381.7358093555158,0.3929791512973874
382.4818468231133,0.3942297465500309
383.22782384634047,0.3954987261357797
384.0076442960235,0.39684531783918403
384.75349770589673,0.3981526952840654
385.49929069376594,0.39947924449716704
386.24502326696165,0.40082523484170934
387.0245881870105,0.40225349090952506
387.77019720761746,0.40364010578394144
388.51574583590264,0.40504700989074977
389.2612340792148,0.4064744895015972
390.0405435952125,0.4079891683612743
390.7859083466392,0.40945963861487766
391.5312127354264,0.41095157372293933
392.27645676890825,0.41246526989881455
393.0555110063433,0.41407136059115784
393.8006316086139,0.4156304953636763
394.5456918778982,0.41721229889272704
395.2906918215267,0.41881706928204515
396.06949090581475,0.4205196628774379
396.8143674788662,0.42217233509410357
397.5591837485699,0.42384887420364176
398.30393972224556,0.42554957121506937
399.08248377871496,0.4273537149379116
399.82711644241135,0.4291047180049622
400.57168883236955,0.43088074277777666
401.31620095591643,0.43268206343186416
402.06065282036434,0.4345089484122666
402.8388789839337,0.4364464917562954
403.5832076139195,0.4383264760785437
404.3274760070817,0.4402328003484572
405.071684170729,0.44216570328804333
405.8158321121773,0.44412541463478156
406.5937405775112,0.4462031064910597
407.33776535995275,0.44821832757109803
408.0817299424489,0.4502609945890692
408.8256343323046,0.45233129425837887
409.6032882071304,0.4545254328716616
410.34706949843894,0.4566527831231595
411.0907906193461,0.45880825626988075
411.83445157716415,0.460991985357859
412.5780523791873,0.46320408855447576
413.3553889061186,0.4655471911487024
414.09886668493345,0.4678176345428098
414.8422843301778,0.4701167138114245
415.58564184915303,0.47244448061770383
416.3289392491424,0.47480096867134014
417.10595862239643,0.47729529524326914
417.8491330744655,0.4797105578406599
418.59224742975493,0.48215452782477347
419.33530169556616,0.4846271605046267
420.07829587917877,0.48712839045237716
420.85499829281616,0.48977379495297707
421.59786960372367,0.4923332257618627
422.3406808546242,0.49492092167542273
423.0834320528011,0.4975367283779135
423.82612320553744,0.500180468436948
424.5687543201093,0.5028519408887325
425.3450772086435,0.5056742513963014
426.08758554056476,0.5084017223628997
426.8300338564841,0.511156164770099
427.57242216369195,0.5139372786607296
428.31475046945343,0.5167447387816902
429.0907568243929,0.5197075993946072
429.832962422588,0.5225678287749365
430.5751080414848,0.52545325524485
431.31719368836275,0.528363448615506
432.0592193704797,0.5312979522436001
432.8011850951152,0.5342562828798143
433.5768124349561,0.537374005410764
434.3186555419052,0.5403794555673679
435.060438713499,0.5434070959713518
435.80216195699177,0.5464563347479412
436.5438252796521,0.5495265530667214
437.28542868873774,0.552617105156839
438.0606772910869,0.5558691476038072
438.80215817228964,0.5589991672483885
439.54357916202935,0.5621473886488778
440.28494026754925,0.5653130577937334
441.026241496118,0.5684953942464448
441.76748285497524,0.5716935913349162
442.542352997174,0.5750532153145127
443.28347191786816,0.5782812330948833
444.0245309909369,0.5815224956322825
444.7655302236417,0.5847760926506131
445.50646962321844,0.588041089035374
446.2473491969213,0.5913165251971886
446.98816895199343,0.5946014174631405
447.7625983811886,0.5980446399547821
448.5032958025331,0.6013457115353545
449.243933427304,0.604653099621634
449.9845112627445,0.6079657276753414
450.72502931609415,0.6112824974681141
451.4654875945889,0.6146022896361854
452.2058861054684,0.6179239642606492
452.97987519754315,0.6213973776667697
453.72015147901766,0.6247192692001307
454.4603680149121,0.6280394513966518
455.2005248124515,0.6313567076110189
455.9406218788754,0.6346698039413208
456.68065922140886,0.637977489952064
457.4206368472878,0.6412784994188879
458.16055476373367,0.6445715510938219
458.9340414783692,0.6480043720385465
459.67383728439745,0.6512770968303897
460.41357340299146,0.6545378775396765
461.15324984138715,0.6577853803532278
461.8928666068023,0.6610182605862267
462.6324237064546,0.6642351635572198
463.3719211475691,0.667434725478346
464.1113589373563,0.6706155743598592
464.884343763526,0.6739195018564297
465.6236595617265,0.677057771201593
466.3629157305804,0.6801731082290203
467.1021122773054,0.6832641172656403
467.8412492091047,0.6863293991888246
468.58032653320333,0.6893675523992329
469.31934425680447,0.6923771738013115
470.0583023871113,0.6953568597911002
470.79720093134165,0.6983052072500687
471.56962207053584,0.7013525415525128
472.30839875658785,0.7042324245556492
473.04711587851125,0.707076709253439
473.7857734434947,0.7098840047224847
474.5243714587523,0.7126529255966195
475.2629099314763,0.7153820930764263
476.00138886887726,0.7180701359382623
476.73980827814376,0.7207156915411858
477.47816816647537,0.7233174068313742
478.21646854107166,0.7258739393426336
478.9882643984347,0.7284969233702607
479.7264430627947,0.7309569049608875
480.4645622353273,0.733367690859729
481.20262192322116,0.7357279915314889
481.9406221336685,0.7380365329851541
482.678562873858,0.7402920577315129
483.416444150982,0.7424933257303264
484.15426597222176,0.7446391153261358
484.89202834476237,0.7467282241719756
485.6297312757961,0.7487594701399868
486.367374772497,0.7507316922180368
487.13848397878246,0.7527292155095818
487.8760059276392,0.7545771840778059
488.6134684640383,0.7563627320757255
489.3508715951575,0.7580847927489351
490.08821532817456,0.7597423247411503
490.8254996702708,0.7613343128894312
491.56272462860943,0.7628597689998741
492.2998902103791,0.7643177326032662
493.0369964227466,0.7657072716896751
493.7740432728824,0.7670274834216682
494.511030767957,0.7682774948252947
495.24795891514077,0.7694564634582973
495.98482772160787,0.7705635780549487
496.7216371945178,0.7715980591469227
497.4918745745599,0.7726010908023881
498.22856270570264,0.7734847122598327
498.9651915251052,0.7742935282993856
499.70176103994163,0.7750268939130767
500.4382712573679,0.7756841986395883
501.17472218453986,0.7762648670299218
501.911113828628,0.7767683590858945
502.6474461967773,0.7771941706710883
503.3837192961546,0.7775418338940406
504.1199331339085,0.7778109174632691
504.8560877172022,0.7780010270139733
505.59218305318427,0.7781118054061138
506.3282191490034,0.7781429329937248
507.0641960118155,0.7780941278652606
507.80011364876555,0.7779651460548466
508.5359720670094,0.7777557817243342
509.27177127369214,0.7774658673160803
510.00751127595504,0.7770952736764027
510.77663071110874,0.7766214735134274
511.5122496356853,0.7760856136680719
512.2478093776044,0.7754689186525069
512.9833099440075,0.7747714153314754
513.7187513420322,0.7739931691498728
514.4541335788235,0.7731342840796553
515.1894566615156,0.7721949025379768
515.924720597246,0.7711752052766861
516.659925393149,0.7700754112434678
517.3950710563695,0.7688957774148145
518.1301575940306,0.767636598601224
518.8651850132665,0.7662982072247444
519.6001533212111,0.7648809730693704
520.335062524995,0.7633853030045817
521.069912631745,0.7618116406824078
521.804703648595,0.7601604662084132
522.5394355826611,0.7584322957871519
523.2741084410809,0.7566276813423196
524.0087222309703,0.7547472101124368
524.7432769594598,0.7527915042221869
525.4777726336652,0.7507612202302979
526.2122092607133,0.7486570486542158
526.9465868477237,0.7464797134724132
527.6809054018049,0.7442299716047676
528.4151649300911,0.7419086123715493
529.1493654396836,0.7395164569320614
529.8835069377128,0.7370543577029305
530.6175894312764,0.7345231977574879
531.3516129275049,0.7319238902061115
532.0855774334959,0.7292573775591026
532.819482956369,0.7265246310719574
533.5533295032292,0.7237266500744981
534.2871170811886,0.7208644612840862
535.0208456973523,0.7179391181040172
535.7545153588253,0.7149516999076511
536.4881260727198,0.7119033113091333
537.2216778461334,0.7087950814216238
537.9551706861675,0.7056281631035425
538.6886045999308,0.7024037321938507
539.4219795945137,0.6991229867372587
540.1552956770283,0.6957871461997475
540.8885528545616,0.6923974506759022
541.621751134222,0.6889551600880577
542.3548905230964,0.6854615533789264
543.0879710282788,0.6819179276977709
543.8209926568743,0.6783255975813941
544.5539554159623,0.6746858941308499
545.2868593126404,0.6710001641841007
546.0197043540029,0.6672697694861408
546.7524905471291,0.6634960858570303
547.4852178991168,0.6596805023584544
548.2178864170455,0.6558244204601894
548.9504961080092,0.6519292532065407
549.6830469790839,0.6479964243842351
550.4155390373562,0.6440273676918548
551.147972289913,0.6400235259121108
551.8803467438302,0.6359863500874855
552.6126624061908,0.6319172986998102
553.3449192840671,0.6278178368548492
554.077117384546,0.623689435472145
554.8092567146996,0.6195335704813573
555.5413372816074,0.6153517220251665
556.2733590923381,0.6111453736699001
557.0053221539674,0.6069160116240757
557.7372264735714,0.6026651239658269
558.4690720582112,0.5983941998796876
559.2008589149664,0.5941047289029895
559.9325870509019,0.5897982001830758
560.6642564730864,0.5854761017451691
561.3958671885885,0.5811399197718176
562.1274192044657,0.5767911378943169
562.8589125277904,0.5724312364962915
563.557101409664,0.5682604960649839
564.2884800361171,0.5638831199427294
565.0197999908705,0.5594989726572378
565.7510612810001,0.5551095151830303
566.4822639135564,0.5507162019938244
567.2134078955969,0.5463204804477286
567.9444932341794,0.5419237901874806
568.6755199363579,0.5375275625557179
569.4064880091901,0.5331332200254403
570.1373974597191,0.528742175646087
570.8682482950098,0.5243558325048938
571.5990405221055,0.5199755832044847
572.3297741480565,0.5156028093558745
573.0604491799168,0.5112388810876088
573.7910656247223,0.5068851565709893
574.521623489527,0.5025429815609674
575.252122781374,0.49821368895343343
575.9825635073103,0.49389859835822425
576.7129456743751,0.4895990156882091
577.4100740317808,0.4855105221494416
578.1403417631991,0.4812449671315669
578.8705509565516,0.47699869466242945
579.6007016188742,0.47277295276975095
580.3307937572026,0.46856897397934966
581.0608273785729,0.4643879749964821
581.7908024900207,0.46023115640204854
582.520719098582,0.45609970236341907
583.2505772112818,0.4519947803596757
583.980376835163,0.4479175409206974
584.7101179772508,0.4438691173803847
585.4398006445663,0.4398506256430359
586.1694248441527,0.4358631639627733
586.8658297721449,0.4320868897347953
587.5953397141711,0.4281631806611339
588.3247912092156,0.424273641430241
589.054184264307,0.4204192985813376
589.7835188864665,0.41660116009208126
590.5127950827155,0.4128202152282471
591.2420128600788,0.4090774344037685
591.9711722255634,0.40537376905080325
592.7002731862012,0.4017101514989162
593.4293157489992,0.39808749486372996
594.1582999209822,0.3945066929436269
594.8872257091571,0.39096862012491
595.5829640500015,0.3876320142964026
596.3117757446234,0.38417990785789996
597.0405290761628,0.38077299971959655
597.7692240516226,0.3774120867114673
598.4978606780169,0.3740979458832776
599.2264389623524,0.3708313344478903
599.9549589116359,0.3676129897292486
600.6834205328742,0.36444362911472694
601.4118238330666,0.36132395001140466
602.1401688192273,0.35825462980565215
602.8353528232146,0.3553724056233905
603.5635838521521,0.3524033936809476
604.2917565877397,0.3494866246974901
605.0198710369696,0.3466226965444568
605.7479272068485,0.34381218690915794
606.4759251043615,0.34105565326651116
607.2038647365189,0.3383536328511358
607.9317461103055,0.33570664263015715
608.659569232721,0.33311517927569156
609.3542551524879,0.3306937458592314
610.0819644401308,0.3282121690030724
610.809615497059,0.32578746762222355
611.53720833025,0.32342005785400557
612.264742946707,0.32111033539574374
612.9922193534039,0.31885867547214425
613.719637557333,0.316665432800694
614.4469975654793,0.31453094155550526
615.1412414734805,0.31254856729852887
