Raman Shift (cm-1),Fitted Intensity
307.71441355443676,0.012898694754424518
308.36391220437145,0.012970071179875137
309.01336522421843,0.013042275628832355
309.6969506915775,0.01311919188111134
310.34631006473137,0.013193144911624228
310.99562382247314,0.013267974502630241
311.6790627139999,0.013347707884945102
312.32828285516734,0.013424389681189537
312.9774573955983,0.013502000554020809
313.6607497584264,0.013584719866211004
314.30983071238734,0.013664295149656433
314.9588660802692,0.013744856418862892
315.64201196152135,0.013830744583181533
316.29095377302656,0.013913391950458737
316.93985001311376,0.013997087070485066
317.58870068658143,0.014081851319939892
318.27165217367656,0.014172256024682002
318.920409330698,0.01425928432342076
319.5691209357501,0.01434745078537048
320.25192605085977,0.014441513492839135
320.9005441695299,0.014532091895929588
321.54911675086987,0.014623883671372928
322.2317755410477,0.01472184613392857
322.8802546660554,0.014816211104772095
323.52868826836857,0.014911871519505132
324.2112007806463,0.015013997550852263
324.8595409566624,0.015112407274109377
325.5078356246195,0.015212202148492893
326.19020190600713,0.015318780109821448
326.8384031776877,0.015421516948940981
327.486558955934,0.01552573715229483
328.1687790534197,0.015637082749783718
328.81684146540283,0.015744456011764493
329.4648583985654,0.015853420335396398
330.14693235912273,0.015969879765683037
330.7948559560209,0.016082228808548826
331.4427340887123,0.0161962871935109
332.12466195928937,0.016318240675690553
332.7724467857006,0.01643593839575896
333.4201861625079,0.016555475552712615
334.10196799003825,0.016683341286404935
334.74961409053867,0.01680679802290614
335.3972147560344,0.01693223748149098
336.07885058742613,0.017066476069914325
336.7263580065737,0.017196143963340106
337.3738200053085,0.017327952586545358
338.05530988745886,0.01746907196072882
338.70267866978975,0.017605449797701147
339.3500020462998,0.017744142792197406
340.03134602607315,0.01789270366648323
340.67857621611256,0.01803634223706138
341.3257610149085,0.018182488682251887
342.00695913915115,0.018339110561100175
342.6540507814025,0.018490618543165093
343.30109704698043,0.018644847448752968
343.98214936252407,0.01881021518917227
344.62910250146524,0.018970265557595543
345.2760102782995,0.0191332724403335
345.95691683195764,0.01930814335162774
346.60373151205204,0.019477480285848215
347.25050084460236,0.019650034229392457
347.93126168316303,0.019835245660661527
348.57793794885583,0.02001469189147819
349.2245688815601,0.020197643017234274
349.9051840517932,0.02039412034148751
350.55172194750776,0.02058458483472097
351.1982145247821,0.02077887206467574
351.8786840734356,0.02098763691481498
352.52508364358073,0.02119012273441154
353.17143790982664,0.021396781667658203
353.851761883634,0.02161896021251619
354.4980231725931,0.021834572337366926
355.1442391721903,0.022054742989200012
355.8244176178596,0.022291573956180127
356.47054067000136,0.02252152674264673
357.116618447315,0.022756460808176743
357.796651411536,0.023009302862561958
358.4426362712111,0.023254926748348042
359.0885758705808,0.023505993951815227
359.73447021440006,0.023762664629131104
360.4143101115624,0.02403907886792155
361.06011157731336,0.024307771845915854
361.7058678020294,0.024582584530083603
362.3855623263371,0.024878668207846306
363.03122570277264,0.025166605252547554
363.6768438526851,0.025461219524369482
364.3563930507662,0.025778764020443785
365.00191838217506,0.026087688883069553
365.64739850156184,0.026403888926428216
366.3268024200188,0.02674481536282758
366.97218975066426,0.027076593195089725
367.6175318837886,0.027416282253792154
368.29679056920577,0.027782633930874805
368.94203994333657,0.028139242333507522
369.58724413443633,0.02850443191780827
370.26635763338345,0.028898360828731973
370.9114690952265,0.02928187489346386
371.5565353885286,0.029674667603729683
372.2355037475427,0.030098413820484227
372.88047734131396,0.03051098401016157
373.52540578101616,0.03093354882034004
374.20422904662337,0.03138941153848365
374.8490648165134,0.0318332332658377
375.49385544680626,0.03228777214792463
376.1725336655036,0.032778071244062776
376.81723165568474,0.03325534510044437
377.4618845207333,0.033744049990128325
378.14041773901045,0.03427107710413091
378.78497799363686,0.0347839588721249
379.429493137588,0.03530895819196119
380.10788140190925,0.03587491661101906
380.75230396511324,0.03642545648405367
381.3966814320993,0.03698875076708878
382.0749247889071,0.03759568377410057
382.7192097048028,0.03818575461234205
383.3634495389306,0.0387891412148445
384.0415480346528,0.03943884907566749
384.6856953473434,0.04007006405456805
385.32979759270165,0.040715051512696596
386.0077512737407,0.04140899791396067
386.6517610273004,0.0420826185649914
387.29572572796314,0.04277033182860662
387.97353464070693,0.04350954132773709
388.61740687919155,0.04422637771466336
389.2612340792148,0.04495745626276547
389.9388982700257,0.04574240514960213
390.58263303748026,0.046502710740099526
391.22632278089804,0.047277202414541364
391.9038422961203,0.04810770627156825
392.547439636568,0.04891107091267641
393.190991967389,0.049728325155072334
393.86836685335584,0.050603427288991774
394.51182681079445,0.05144867252287513
395.1552417730236,0.05230723750743753
395.832472076032,0.053225103245472936
396.47579469444827,0.054110184945749734
397.1190723320615,0.05500771380180011
397.7961580983974,0.05596553632971223
398.43934342176,0.05688746022777769
399.08248377871496,0.05782063206862359
399.7594250546499,0.05881455595708193
400.4024731269019,0.05976931198992176
401.04547624713814,0.0607337737368321
401.6884344200698,0.06170735991449774
402.3651839439881,0.06274136396150054
403.0080498714269,0.06373169890716315
403.6508708659494,0.06472915169029184
404.3274760070817,0.06578598595456965
404.9702047856299,0.06679571459637552
405.6128886456281,0.067810212633335
406.2893494501732,0.06888233341628833
406.931941123712,0.06990395127338385
407.5744878930782,0.07092766929567158
408.2508044072092,0.0720065037836283
408.89325901960547,0.0730315596869345
409.53566874219905,0.0740557605548529
410.211841012082,0.0751318187227996
410.8541586071806,0.07615103545912776
411.4964313268356,0.07716620477130016
412.17245939861095,0.07822923607776697
412.81464002024586,0.07923267333749463
413.4567757807854,0.08022869586508802
414.13265970057546,0.08126788919346803
414.7747033925516,0.08224514660830956
415.41670223778056,0.08321152160173852
416.09244205168943,0.08421574453478034
416.73434885779716,0.08515620032112096
417.37621083150225,0.08608229046108629
418.0518065856122,0.08704036159224737
418.6935765496237,0.08793344008089879
419.33530169556616,0.08880874665719649
420.01075343593766,0.08970973240772001
420.6523866016105,0.0905451917012085
421.2939749635407,0.09135964666138494
421.9692827362196,0.09219317215309981
422.6107791472823,0.09296140146410514
423.2522307689287,0.09370566543441268
423.92739461993915,0.09446222752373169
424.5687543201093,0.09515454255780754
425.21006924518224,0.09582029693839587
425.8850892205264,0.09649156668150642
426.5263122535034,0.09710049085065364
427.1674905256914,0.09768071173085828
427.842366671357,0.09825981342098726
428.48345308081844,0.09877933279085056
429.124494743799,0.099268534782508
429.79922710574465,0.09975028932710822
430.4401769353535,0.10017607003924467
431.0810820327788,0.10057050919897162
431.75567065695213,0.10095163098259066
432.39648395034965,0.10128118943141687
433.03725252585355,0.10157901619600201
433.71169745818406,0.10185825464097249
434.3523742589896,0.10209107284578847
434.9930063561915,0.10229242824422462
435.6673076425832,0.10247064792036177
436.30784799440517,0.1026082291900549
436.94834365689894,0.10271528038114891
437.6225013432377,0.10279547656507426
438.26290528966274,0.10284133954078643
438.90326456103503,0.10285825378016472
439.57727869318114,0.1028455036295396
440.2175462777777,0.10280511591582137
440.85776920158605,0.10273797518205353
441.53163982539263,0.1026393279570228
442.1717710917037,0.10251998361049379
442.81185771149467,0.1023766451127862
443.4518996894294,0.10221032800038903
444.1255798643506,0.10201160587048685
444.7655302236417,0.101801516326171
445.40543595533745,0.10157185179601672
446.0789727285555,0.10131027733831029
446.718786870857,0.1010442510794898
447.35855639980946,0.10076244873164525
448.03194981711204,0.10045021872190901
448.67162778590864,0.10014019123772781
449.3112611555989,0.09981849784164849
449.9845112627445,0.099468809144397
450.62405310151007,0.09912757850572464
451.26355035539746,0.0987790181999533
451.9366571981336,0.09840579444241829
452.5760629503129,0.09804676315727483
453.21542413184943,0.09768488208943281
453.8883877558983,0.09730250924049622
454.5276574649215,0.09693943846808545
455.16688261753006,0.09657806545202617
455.83970306859555,0.09620114803799507
456.47883677788195,0.09584793480752428
457.11792594496364,0.09550096809528885
457.79060326873514,0.09514411602648468
458.4296010216749,0.0948146022585301
459.0685542466272,0.09449583051553696
459.74108848876494,0.09417348422340588
460.3799503287337,0.09388130405390341
461.01876765492125,0.0936042672086607
461.69115886107465,0.09333056613488515
462.3298848314371,0.093089035422998
462.96856630221373,0.09286692836646622
463.64081451800666,0.09265562493911057
464.27940466209475,0.09247767402768736
464.91795032079244,0.09232329328800623
465.5900555918379,0.0921877114937695
466.2285099529763,0.09208585940375491
466.86691984291247,0.09201159003379131
467.5388822147943,0.09196462466624626
468.1772008362859,0.09195099004986278
468.8154750007525,0.09196882713914771
469.48729451904,0.09202297687169597
470.1254774441695,0.09210931831554203
470.7636159264475,0.09223091486322231
471.4352926366919,0.09239833955288804
472.0733399087185,0.09259611529517642
472.7113427520708,0.09283284573926368
473.38287669979763,0.09312543590008154
474.0207883619769,0.09344587078961071
474.65865560964085,0.0938088973659687
475.33004684036496,0.09423834165305502
475.9678229359197,0.09469248732570229
476.60555463111814,0.09519281472850612
477.27680319033243,0.09577064965945797
477.9144437624782,0.09636942255754836
478.55203994841577,0.09701792521690732
479.2231458815877,0.09775555036896676
479.86065097351093,0.09850973152604187
480.4981116933777,0.09931713736529275
481.1690750459602,0.10022577910156474
481.8064447008437,0.10114595973874417
482.4437699978007,0.10212277471159022
483.11459081522844,0.10321338231446564
483.7518250762223,0.10430984044786834
484.3890149934232,0.10546619969258011
485.0261605714659,0.10668348541698212
485.69679223135245,0.10803175549160592
486.3338468119291,0.10937718978155943
486.9708570674702,0.11078648906602734
487.64134629787804,0.11233992922161826
488.2782655849405,0.11388303970773866
488.9151405610901,0.11549256268209597
489.5854874073884,0.11725933980982053
490.22227144403223,0.11900737992645148
490.85901118387847,0.12082383267520413
491.5292156914147,0.1228103517461189
492.1658645207208,0.12476872253966072
492.8024690673301,0.1267967768636381
493.4725312814371,0.12900709728187099
494.1090449464573,0.1311787710897687
494.74551434288514,0.1334204695500966
495.41543430887396,0.13585566201345617
496.0518128526528,0.1382405589167386
496.6881471419292,0.14069468276454988
497.3579249050963,0.14335215910982213
497.9941683706493,0.14594651021349295
498.630367595797,0.14860794729633622
499.3000032014097,0.1514808055212922
499.93611163174137,0.15427654597231946
500.5721758357504,0.15713570407946678
501.2416693290652,0.1602121388919085
501.87764276716916,0.16319638054412652
502.51357199301856,0.16623869779667286
503.18292341926644,0.16950153244523203
503.8187619081,0.17265617008027254
504.4545561987579,0.17586177674618528
505.12376560315533,0.17928817336415429
505.7594691856684,0.1825896783005475
506.39512858407033,0.1859332628018629
507.0641960118155,0.18949466504970536
507.69976473093993,0.19291411496993308
508.33528928001033,0.1963650401131465
509.0042147762797,0.20002739290519375
509.63964867492905,0.20353077635403324
510.27503841757425,0.2070534796656133
510.94382202752604,0.21077775609878507
511.5791211485921,0.21432657444192638
512.2143761277039,0.21788126922050785
512.8830178964745,0.22162431501830365
513.5181822828308,0.22517648442340535
514.1533025412755,0.22872015666745393
514.8218025139868,0.23243583873536075
515.4568322084924,0.23594687132816525
516.0918177891217,0.23943454364909705
516.7601760108737,0.24307516358414222
517.3950710563695,0.24649958230653962
518.029922002017,0.24988579141745323
518.6981385178879,0.253403699413995
519.3328989571928,0.2566966176547063
519.9676153106775,0.2599370295076136
520.6356901657309,0.2632863517156966
521.2703160416495,0.2664051290518953
521.9048978457649,0.2694581977250133
522.5728310850463,0.27259657337721954
523.2073224403612,0.2755024451726242
523.8417697378827,0.27833101048439396
524.5095614064157,0.2812212262689696
525.1439182838949,0.2838807993746349
525.778231117587,0.28645351565688876
526.4124999120795,0.2889367532124778
527.0801037027704,0.2914514360333538
527.7142821153757,0.29374393143364674
528.3484165027767,0.29594062788954434
529.0158788274384,0.2981478030346145
529.6499228616813,0.3001434850250292
530.2839228847115,0.3020397027719736
530.9512437883131,0.30392759651190665
531.5851534868925,0.3056180437838506
532.2190191882546,0.30720804899043497
532.8861987157288,0.30877350550519383
533.5199741213473,0.310158416984847
534.1537055437184,0.3114444828288717
534.8207437399906,0.3126926014615636
535.4543848953108,0.3137793069046862
536.0879820813607,0.3147710872539666
536.7548789913271,0.31571442108956344
537.3883859390007,0.31651699132234984
538.0218489313738,0.317230513351505
538.6886045999308,0.31788789088854047
539.3219773825913,0.3184259159551329
539.9553062239138,0.3188822686003574
540.6219206959177,0.3192773279506439
541.2551593561839,0.3195744553038546
541.8883540890674,0.3197982717463657
542.5548274093708,0.3199578161904365
543.1879319898399,0.32004015644353534
543.8209926568743,0.32005800109787835
544.4873248703007,0.32001029430973604
545.1202954135515,0.31990480775029606
545.7532220573121,0.31974358065899827
546.4194132086741,0.319516698974908
547.0522497572674,0.3192496718972993
547.6850424203112,0.31893513622022507
548.3510925543924,0.31855548456397575
548.9837951508744,0.31815119141331016
549.6164538757366,0.31770671406521006
550.2823630373132,0.31719779314656604
550.9149317242081,0.31667742026025925
551.5474565534096,0.3161229937002891
552.2132247872287,0.31550448120111
552.8456596070464,0.31488536296422076
553.4780505830931,0.3142369501854918
554.1436779338874,0.3135241305806428
554.7759789291158,0.31281932174093574
555.4082360944885,0.3120885393308329
556.0737226069723,0.31129208857003604
556.7058898200812,0.31051026991088365
557.3380132172497,0.3097043981984508
558.0033589361192,0.3088305032630386
558.6353924095638,0.3079761941044267
559.2673820809723,0.3070984810204006
559.9325870509019,0.3061492524278229
560.5644868271193,0.3052232842780409
561.1963428151976,0.30427349217908783
561.8614070808471,0.30324761123898414
562.493173202256,0.30224780345442903
563.124895549412,0.3012229366830423
563.7898191554195,0.3001164693915921
564.4214516644206,0.29903844033794613
565.053040413055,0.2979335859060596
565.6845854058702,0.2968012612478823
566.3493223430087,0.29557893752776826
566.9807775354966,0.29438815163619747
567.6121889860442,0.29316787260484434
568.2767853673577,0.29185079426073324
568.9081070460561,0.2905679725499019
569.5393849966895,0.2892537610066585
570.2038408667613,0.2878358625348239
570.8350290740127,0.28645554086295794
571.4661735670597,0.28504229869159464
572.1304889704443,0.28351868543637654
572.7615437485692,0.28203672932673923
573.3925548263542,0.2805208844113574
574.0567298075875,0.27888846262231914
574.6876511988885,0.27730261605619566
575.3185289037065,0.27568262076426975
575.9825635073103,0.27394056647666454
576.6133515540787,0.27225084331068516
577.2440959282103,0.2705275127411501
577.9079901986806,0.2686775702386588
578.5386449431826,0.266886483278243
579.1692560288902,0.26506317185185085
579.8330100107123,0.26310978384289274
580.4635314951993,0.2612224168377459
581.0940093347308,0.2593050414402716
581.7576230723644,0.2572553225308788
582.3880113390696,0.255279258653356
583.0183559746511,0.25327618414948455
583.6818295125377,0.25113975644580694
584.31208460368,0.2490848829747938
584.9422960775155,0.2470066913651847
585.6056294600858,0.24479540602313016
586.2357514178584,0.24267361898301304
586.8658297721449,0.240532786829707
587.5290230438004,0.2382603581917908
588.1590119103821,0.23608519273042916
588.7889571872984,0.23389570290696185
589.452010392426,0.23157728275233186
590.081866209981,0.2293634953271975
590.7116784516729,0.22714040892523288
591.3745916346415,0.22479212760989087
592.0043144453157,0.2225552548882879
592.6339936939257,0.22031426754538108
593.2967668990932,0.21795276676220127
593.9263567450034,0.2157086838557842
594.5559030426521,0.21346568818694292
595.2185363143399,0.2111076670741498
595.8479932376067,0.20887216464294656
596.4774066263963,0.20664283717876486
597.139900008915,0.20430462987763987
597.7692240516226,0.2020930260582658
598.3985045736445,0.19989245340955825
599.0608581112901,0.19758965221592342
599.6900493155117,0.19541645152038045
600.3191970128246,0.19325880665993042
600.9814107498714,0.1910059408844585
601.6104691576656,0.1888845484134472
602.2394840723209,0.1867828242060716
602.9015580530286,0.18459310096989834
603.5304837064286,0.18253559667265207
604.1593658804595,0.1805014002701916
604.8213001490622,0.1783865098817941
605.4500930900904,0.1764034843193346
606.0788425655082,0.17444689289623885
606.7075485798232,0.17251764393656716
607.3692974368823,0.17051732853895296
607.997914255684,0.16864680416851108
608.626487627138,0.16680603655056775
609.2880968749887,0.1649012732499494
609.9165810791528,0.16312363256269852
610.5450218497172,0.16137762572117212
611.2064915325354,0.1595744480716147
611.8348431640225,0.157894880714707
612.4631513756503,0.15624830258711897
613.1244815375903,0.154551069190379
613.7527006383461,0.15297319800985945
614.3808763329762,0.15142917723243693
615.0420670181775,0.1498406597903474
615.6701536301225,0.1483666350530948
616.2981968496752,0.14692686462356988
616.9592481022555,0.14544836633066466
617.5872022673029,0.1440789861363647
618.2151130536804,0.1427438507243602
618.8760249177394,0.14137534684375952
619.5038466777769,0.14011019608474576
620.1316250728596,0.13887891548427517
620.7923975924859,0.13761920838663164
621.420086989383,0.13645680912050176
622.0477330350404,0.13532759092829408
622.7083662542937,0.13417447257332993
623.3359233299052,0.13311243940522252
623.9634370679887,0.13208263479762225
624.6239310309138,0.1310330505212733
625.2513558270766,0.13006824547465845
625.8787372994157,0.12913450287175146
626.5390920500431,0.12818471133524081
627.1663846085794,0.12731339365379135
627.7936338569816,0.12647180603635297
628.4538494393164,0.12561753122916336
629.0810098020265,0.1248354985373274
629.708126868296,0.12408174116266495
630.3682033263249,0.12331831337305103
630.995231534991,0.12262103157878196
631.6222164609026,0.12195048777888513
632.2821538385979,0.12127297140787216
632.9090499349913,0.12065569161841863
633.5359027623053,0.12006356522192035
634.1957011036211,0.11946687218579041
634.8224651294877,0.11892473369808831
635.4491858999463,0.1184061473723168
636.1088452488184,0.11788513559224349
636.7354772458893,0.11741325469551314
637.3620660012202,0.11696333414121941
638.021586401559,0.11651289124510461
638.6480864115474,0.11610643612673993
639.2745431934563,0.11572038057091584
639.9339246891614,0.11533549342860548
640.5602927537657,0.1149897459047786
641.1866176039475,0.11466288572811868
641.8458602388964,0.1143386968115736
642.4720963997934,0.1140491019175403
643.0982893599139,0.11377694453057306
643.7573931779698,0.11350879634493086
644.3834974768215,0.1132710010274763
645.0095585885429,0.1130492662849631
645.6685236335434,0.11283273526871458
646.2944961119902,0.11264261753849548
646.9204254169454,0.11246726407019758
