Raman Shift (cm-1),Fitted Intensity
307.71441355443676,0.021442670978131725
308.36391220437145,0.02153763271345087
309.01336522421843,0.02163341881273963
309.6969506915775,0.021735149445905953
310.34631006473137,0.021832663762650254
310.99562382247314,0.021931038152672503
311.6790627139999,0.022035532764498184
312.32828285516734,0.022135711221619475
312.9774573955983,0.022236788010812757
313.6607497584264,0.022344169575453748
314.30983071238734,0.02244713182093958
314.9588660802692,0.02255103351548962
315.64201196152135,0.02266143419734948
316.29095377302656,0.022767308959875485
316.93985001311376,0.022874167505020308
317.58870068658143,0.02298202512366069
318.27165217367656,0.023096656051280876
318.920409330698,0.02320661404000365
319.5691209357501,0.02331762035961955
320.25192605085977,0.023435620403698103
320.9005441695299,0.02354883247903656
321.54911675086987,0.02366314643175295
322.2317755410477,0.023784687723904734
322.8802546660554,0.02390132220424274
323.52868826836857,0.024019116983858273
324.2112007806463,0.024144387332906244
324.8595409566624,0.02426462809290711
325.5078356246195,0.02438609312723352
326.19020190600713,0.024515298198480605
326.8384031776877,0.02463934684164678
327.486558955934,0.024764690068985105
328.1687790534197,0.024898055897538147
328.81684146540283,0.025026134259692096
329.4648583985654,0.025155584749807405
330.14693235912273,0.025293360631559084
330.7948559560209,0.02542571365771431
331.4427340887123,0.025559524620762164
332.12466195928937,0.025701986427801103
332.7724467857006,0.025838885467802747
333.4201861625079,0.025977337697448543
334.10196799003825,0.026124791667464977
334.74961409053867,0.026266538238251532
335.3972147560344,0.02640994403754017
336.07885058742613,0.02656273108899102
336.7263580065737,0.026709661153217865
337.3738200053085,0.026858368793368288
338.05530988745886,0.027016869419614065
338.70267866978975,0.02716935823142829
339.3500020462998,0.027323756994482168
340.03134602607315,0.027488396790490026
340.67857621611256,0.027646864359256576
341.3257610149085,0.027807390215096886
342.00695913915115,0.02797864608944809
342.6540507814025,0.028143563310899816
343.30109704698043,0.028310705277365462
343.98214936252407,0.028489112399812874
344.62910250146524,0.02866100790119913
345.2760102782995,0.02883531513250314
345.95691683195764,0.029021474662980933
346.60373151205204,0.02920094240397895
347.25050084460236,0.02938303204716307
347.93126168316303,0.029577619685592964
348.57793794885583,0.02976532734973429
349.2245688815601,0.029955893201089618
349.9051840517932,0.030159668588251854
350.55172194750776,0.030356366790128726
351.1982145247821,0.030556188773146784
351.8786840734356,0.030770005760963337
352.52508364358073,0.030976538082201445
353.17143790982664,0.031186492555368206
353.851761883634,0.031411310349940144
354.4980231725931,0.031628624201597524
355.1442391721903,0.03184969508797776
355.8244176178596,0.03208659025033465
356.47054067000136,0.032315748540845866
357.116618447315,0.032549039251760385
357.796651411536,0.03279921851940258
358.4426362712111,0.03304141208520832
359.0885758705808,0.03328815818720013
359.73447021440006,0.033539604919074796
360.4143101115624,0.03380953278457131
361.06011157731336,0.03407111533233689
361.7058678020294,0.03433788489106208
362.3855623263371,0.03462448685534752
363.03122570277264,0.034902446283353726
363.6768438526851,0.03518613440995911
364.3563930507662,0.03549115165165535
365.00191838217506,0.03578720208408802
365.64739850156184,0.03608958295934867
366.3268024200188,0.03641494964100356
366.97218975066426,0.03673099344374844
367.6175318837886,0.03705403427473573
368.29679056920577,0.03740189290759109
368.94203994333657,0.03774003526776827
369.58724413443633,0.03808591082306978
370.26635763338345,0.0384586274878602
370.9114690952265,0.03882119076660018
371.5565353885286,0.0391922975927003
372.2355037475427,0.03959247672051976
372.88047734131396,0.039982014284221136
373.52540578101616,0.04038098429500131
374.20422904662337,0.04081148266984727
374.8490648165134,0.041230791865034415
375.49385544680626,0.04166050495674512
376.1725336655036,0.042124444560100456
376.81723165568474,0.04257657845865803
377.4618845207333,0.04304017376509922
378.14041773901045,0.043540953044610406
378.78497799363686,0.044029230550887394
379.429493137588,0.044530115919753414
380.10788140190925,0.04507141903000001
380.75230396511324,0.045599432910814516
381.3966814320993,0.046141292153559804
382.0749247889071,0.04672709568925129
382.7192097048028,0.047298718063858096
383.3634495389306,0.04788551550998925
384.0415480346528,0.04852009223222958
384.6856953473434,0.04913947704363468
385.32979759270165,0.04977545891782317
386.0077512737407,0.0504633779644484
386.6517610273004,0.051134959947891336
387.29572572796314,0.05182465208642987
387.97353464070693,0.05257077515976508
388.61740687919155,0.05329926483062808
389.2612340792148,0.054047466264386404
389.9388982700257,0.05485693930565707
390.58263303748026,0.055647313508863934
391.22632278089804,0.056459085464530524
391.9038422961203,0.057337325355438847
392.547439636568,0.058194812953190615
393.190991967389,0.05907546286448625
393.86836685335584,0.06002813874405589
394.51182681079445,0.06095820106950696
395.1552417730236,0.06191326124617529
395.832472076032,0.06294627009581483
396.47579469444827,0.06395457586750267
397.1190723320615,0.06498977654239207
397.7961580983974,0.06610921277460179
398.43934342176,0.06720160725006237
399.08248377871496,0.06832284381379637
399.7594250546499,0.06953496269896343
400.4024731269019,0.07071743094547843
401.04547624713814,0.07193072528233029
401.6884344200698,0.07317550113126144
402.3651839439881,0.074520524437005
403.0080498714269,0.07583198039338297
403.6508708659494,0.07717692690149419
404.3274760070817,0.07862956511521225
404.9702047856299,0.08004531826036665
405.6128886456281,0.08149656954008037
406.2893494501732,0.0830632712775298
406.931941123712,0.08458943325065996
407.5744878930782,0.08615308014487451
408.2508044072092,0.08784022701298531
408.89325901960547,0.08948282488669784
409.53566874219905,0.09116485281524685
410.211841012082,0.09297869241968866
410.8541586071806,0.09474360363948615
411.4964313268356,0.09654982623127849
412.17245939861095,0.09849640098701253
412.81464002024586,0.10038928456250701
413.4567757807854,0.1023252737821486
414.13265970057546,0.10441034630597915
414.7747033925516,0.10643657102115935
415.41670223778056,0.1085075845803831
416.09244205168943,0.11073656051755067
416.73434885779716,0.11290113098394301
417.37621083150225,0.1151120378700494
418.0518065856122,0.11748988703359597
418.6935765496237,0.11979736841704093
419.33530169556616,0.12215257335835701
420.01075343593766,0.12468375002462964
420.6523866016105,0.1271381922196476
421.2939749635407,0.1296415598266147
421.9692827362196,0.13232992291584048
422.6107791472823,0.1349347848035299
423.2522307689287,0.13758956395551422
423.92739461993915,0.14043829761417584
424.5687543201093,0.14319637180303885
425.21006924518224,0.14600512057794396
425.8850892205264,0.14901665535049338
426.5263122535034,0.15192999344461836
427.1674905256914,0.15489450449097786
427.842366671357,0.158070438802106
428.48345308081844,0.16114027675082282
429.124494743799,0.16426150246334945
429.79922710574465,0.16760252351075938
430.4401769353535,0.17082920595108605
431.0810820327788,0.1741071821151183
431.75567065695213,0.1776129844835834
432.39648395034965,0.18099588618117352
433.03725252585355,0.18442965189236277
433.71169745818406,0.18809885123666728
434.3523742589896,0.1916362927627175
434.9930063561915,0.1952238034087457
435.6673076425832,0.19905384142867796
436.30784799440517,0.2027429950960755
436.94834365689894,0.206481024033614
437.6225013432377,0.21046805971388136
438.26290528966274,0.21430484058175153
438.90326456103503,0.2181888639123819
439.57727869318114,0.2223276447009238
440.2175462777777,0.2263065802328076
440.85776920158605,0.23033063788277505
441.53163982539263,0.23461434326919614
442.1717710917037,0.23872841414803947
442.81185771149467,0.242884939470007
443.4518996894294,0.2470829143304808
444.1255798643506,0.2515454324257616
444.7655302236417,0.2558250420394191
445.40543595533745,0.2601425902638106
446.0789727285555,0.2647269263749075
446.718786870857,0.26911816235300656
447.35855639980946,0.27354308140720107
448.03194981711204,0.27823554740273043
448.67162778590864,0.282724565736449
449.3112611555989,0.28724215275162424
449.9845112627445,0.292026298562121
450.62405310151007,0.2965965018125243
451.26355035539746,0.30118916856744127
451.9366571981336,0.30604535871753236
452.5760629503129,0.3106769776975347
453.21542413184943,0.31532381834780515
453.8883877558983,0.3202287641926827
454.5276574649215,0.324898404266886
455.16688261753006,0.32957473587246155
455.83970306859555,0.3345010100117836
456.47883677788195,0.3391811927803573
457.11792594496364,0.3438581053721994
457.79060326873514,0.348773683889582
458.4296010216749,0.3534324347063672
459.0685542466272,0.35807640863985646
459.74108848876494,0.36294431018476164
460.3799503287337,0.3675448651239675
461.01876765492125,0.37211753727513247
461.69115886107465,0.376895653361022
462.3298848314371,0.3813963831464815
462.96856630221373,0.38585456667979273
463.64081451800666,0.39049580048610666
464.27940466209475,0.3948504685147707
464.91795032079244,0.39914654765393826
465.5900555918379,0.4035993920855859
466.2285099529763,0.4077578715667382
466.86691984291247,0.4118406948993212
467.5388822147943,0.4160503754883481
468.1772008362859,0.4199599377441848
468.8154750007525,0.4237763117731065
469.48729451904,0.42768658652505964
470.1254774441695,0.43129382992527043
470.7636159264475,0.43479066095731606
471.4352926366919,0.43834630052869566
472.0733399087185,0.44159971259383096
472.7113427520708,0.44472675711577025
473.38287669979763,0.4478766250869853
474.0207883619769,0.45072966259509784
474.65865560964085,0.45344273124263446
475.33004684036496,0.45614325754097806
475.9678229359197,0.4585577064446025
476.60555463111814,0.46082204407970184
477.27680319033243,0.46304075968229486
477.9144437624782,0.4649900256025486
478.55203994841577,0.46678349018362114
479.2231458815877,0.4685022023299833
479.86065097351093,0.46997411702431496
480.4981116933777,0.4712897364798883
481.1690750459602,0.4725069045477177
481.8064447008437,0.4735056431983322
482.4437699978007,0.4743531672079528
483.11459081522844,0.47508511010216664
483.7518250762223,0.47563191038211716
484.3890149934232,0.4760380967701356
485.0261605714659,0.4763082712157315
485.69679223135245,0.47645136078873745
486.3338468119291,0.4764589215431262
486.9708570674702,0.4763475786048103
487.64134629787804,0.4761090606317076
488.2782655849405,0.4757743963639123
488.9151405610901,0.47534176364975006
489.5854874073884,0.47478876609592374
490.22227144403223,0.47417878954855264
490.85901118387847,0.4734944346265967
491.5292156914147,0.47270260726063873
492.1658645207208,0.47189105720953384
492.8024690673301,0.4710301266654865
493.4725312814371,0.47007964945711755
494.1090449464573,0.46914331095791745
494.74551434288514,0.46818280179460503
495.41543430887396,0.46715455371906983
496.0518128526528,0.4661697397315781
496.6881471419292,0.46518512625180447
497.3579249050963,0.46415731590191184
497.9941683706493,0.4631968570059185
498.630367595797,0.4622592797492588
499.3000032014097,0.46130471137810236
499.93611163174137,0.46043557748081243
500.5721758357504,0.45960967954935594
501.2416693290652,0.45879370500762295
501.87764276716916,0.4580752723266603
502.51357199301856,0.45741766566202247
503.18292341926644,0.45679677422748655
503.8187619081,0.45627966724044694
504.4545561987579,0.4558379378097368
505.12376560315533,0.45545886913843947
505.7594691856684,0.45518425354563236
506.39512858407033,0.4549963696559919
507.0641960118155,0.45489559673017743
507.69976473093993,0.45489477037034187
508.33528928001033,0.45498873534761
509.0042147762797,0.45519214559424653
509.63964867492905,0.4554862606675693
510.27503841757425,0.4558798406841325
510.94382202752604,0.4564024349308499
511.5791211485921,0.457002178473505
512.2143761277039,0.45770253102882363
512.8830178964745,0.4585479553145948
513.5181822828308,0.4594530112696924
514.1533025412755,0.46045603724927053
514.8218025139868,0.46161576146923
515.4568322084924,0.46281387918771827
516.0918177891217,0.46410312654807245
516.7601760108737,0.46555509497629877
517.3950710563695,0.46702060697246617
518.029922002017,0.46856558185566805
518.6981385178879,0.47027220352701204
519.3328989571928,0.471963892611644
519.9676153106775,0.47371771088594744
520.6356901657309,0.47562316508623115
521.2703160416495,0.47748151219045126
521.9048978457649,0.4793779887164385
522.5728310850463,0.4814050343972694
523.2073224403612,0.4833491240733771
523.8417697378827,0.48529968767052156
524.5095614064157,0.4873465223890879
525.1439182838949,0.48927127036051704
525.778231117587,0.4911625246506797
526.4124999120795,0.4930053791157772
527.0801037027704,0.4948756051687344
527.7142821153757,0.49656887208358536
528.3484165027767,0.4981632243950476
529.0158788274384,0.4997149096912547
529.6499228616813,0.5010495033915341
530.2839228847115,0.5022290502154649
530.9512437883131,0.5032823361225165
531.5851534868925,0.5040842715913905
532.2190191882546,0.5046736256509817
532.8861987157288,0.5050443868519043
533.5199741213473,0.5051413213519603
534.1537055437184,0.504972865958295
534.8207437399906,0.504492290839824
535.4543848953108,0.5037335567646495
536.0879820813607,0.5026684708879643
536.7548789913271,0.5012057338166358
537.3883859390007,0.49948381006437076
538.0218489313738,0.4974328543183893
538.6886045999308,0.49491555564927336
539.3219773825913,0.4921834569772953
539.9553062239138,0.48912177976111104
540.6219206959177,0.48554816301529274
541.2551593561839,0.4818274031463394
541.8883540890674,0.4777986505563427
542.5548274093708,0.4732375996147241
543.1879319898399,0.4686140794977959
543.8209926568743,0.46372244041351346
544.4873248703007,0.45830128820467686
545.1202954135515,0.45291053587352587
545.7532220573121,0.44730342311422566
546.4194132086741,0.4411876146602215
547.0522497572674,0.4351941252794233
547.6850424203112,0.4290408570244274
548.3510925543924,0.42241146494150106
548.9837951508744,0.41598787692075084
549.6164538757366,0.40945986393711103
550.2823630373132,0.40249425622834756
550.9149317242081,0.3958047444727584
551.5474565534096,0.38906080481459016
552.2132247872287,0.3819193868085627
552.8456596070464,0.3751091909249067
553.4780505830931,0.3682871081324324
554.1436779338874,0.36110652378716396
554.7759789291158,0.35429732641039124
555.4082360944885,0.34751084439020746
556.0737226069723,0.3404023513099513
556.7058898200812,0.33369198958391905
557.3380132172497,0.3270315468235366
558.0033589361192,0.32008268598168527
558.6353924095638,0.3135474053973342
559.2673820809723,0.30708287598449174
559.9325870509019,0.3003607271426331
560.5644868271193,0.29405849734035067
561.1963428151976,0.287842618336783
561.8614070808471,0.28139743425150093
562.493173202256,0.27537135493253584
563.124895549412,0.26944303263603586
563.7898191554195,0.2633115681695417
564.4214516644206,0.25759285906425256
565.053040413055,0.2519799725128918
565.6845854058702,0.246474940085139
566.3493223430087,0.2407986225037901
566.9807775354966,0.2355202247509279
567.6121889860442,0.23035429575820907
568.2767853673577,0.22503912439445709
568.9081070460561,0.22010709531426198
569.5393849966895,0.21529008265386632
570.2038408667613,0.21034428320137788
570.8350290740127,0.2057645502759612
571.4661735670597,0.2013006419703629
572.1304889704443,0.1967268416574837
572.7615437485692,0.1925002944322972
573.3925548263542,0.1883888925663165
574.0567298075875,0.18418493353718404
574.6876511988885,0.18030814036773135
575.3185289037065,0.1765445322860423
575.9825635073103,0.17270413751246208
576.6133515540787,0.16916994675684044
577.2440959282103,0.16574588166975623
577.9079901986806,0.1622592408852063
578.5386449431826,0.15905732198664752
579.1692560288902,0.1559615404321463
579.8330100107123,0.15281585796176952
580.4635314951993,0.14993321511955002
581.0940093347308,0.1471519576738497
581.7576230723644,0.14433198377884915
582.3880113390696,0.14175345750061455
583.0183559746511,0.13927096350007406
583.6818295125377,0.1367595162730384
584.31208460368,0.1344682759588725
584.9422960775155,0.13226727243787878
585.6056294600858,0.1300457477841745
586.2357514178584,0.12802377089567438
586.8658297721449,0.12608594563795308
587.5290230438004,0.12413480752017222
588.1590119103821,0.12236333690838623
588.7889571872984,0.1206697865112745
589.452010392426,0.11896902743139605
590.081866209981,0.11742899711497706
590.7116784516729,0.11596064038149975
591.3745916346415,0.11449020212287261
592.0043144453157,0.11316262239894198
592.6339936939257,0.11190057042110438
593.2967668990932,0.11064071659389381
593.9263567450034,0.1095070111401105
594.5559030426521,0.10843288747458259
595.2185363143399,0.10736452177580712
595.8479932376067,0.1064068118104821
596.4774066263963,0.105503018665137
597.139900008915,0.10460794548739472
597.7692240516226,0.10380927867269346
598.3985045736445,0.10305920763712913
599.0608581112901,0.10232033437668969
599.6900493155117,0.1016648586692544
600.3191970128246,0.10105304696048696
600.9814107498714,0.10045452983250143
601.6104691576656,0.09992761470038052
602.2394840723209,0.09943984997825325
602.9015580530286,0.09896718718734161
603.5304837064286,0.09855549639680608
604.1593658804595,0.09817887483324261
604.8213001490622,0.09781895249071931
605.4500930900904,0.09751047396682763
606.0788425655082,0.09723341739164496
606.7075485798232,0.09698668105047478
607.3692974368823,0.0967585536741046
607.997914255684,0.09657079227981773
608.626487627138,0.09641026443916702
609.2880968749887,0.0962696950582747
609.9165810791528,0.09616222237253368
610.5450218497172,0.0960792968699997
611.2064915325354,0.09601765030835924
611.8348431640225,0.0959826570028522
612.4631513756503,0.09596989958738038
613.1244815375903,0.09597974545882251
613.7527006383461,0.09601053813637252
614.3808763329762,0.09606160156744735
615.0420670181775,0.09613662154457148
615.6701536301225,0.09622753201291297
616.2981968496752,0.09633706328944355
616.9592481022555,0.09647195176912257
617.5872022673029,0.09661824154770007
618.2151130536804,0.09678178574711584
618.8760249177394,0.09697214833733667
619.5038466777769,0.09716991232098235
620.1316250728596,0.0973838166998421
620.7923975924859,0.09762607007855353
621.420086989383,0.09787214245623373
622.0477330350404,0.09813346364722622
622.7083662542937,0.09842473949917233
623.3359233299052,0.09871660424154709
623.9634370679887,0.09902302061831425
624.6239310309138,0.09936107557820398
625.2513558270766,0.09969678309627708
625.8787372994157,0.10004651369482297
626.5390920500431,0.10042964653955053
627.1663846085794,0.1008077374981687
627.7936338569816,0.10119946829809653
628.4538494393164,0.1016264450508441
629.0810098020265,0.10204588180494523
629.708126868296,0.10247869969222509
630.3682033263249,0.10294868683133258
630.995231534991,0.10340879254112145
631.6222164609026,0.1038821268955864
632.2821538385979,0.10439463249784597
632.9090499349913,0.10489503766652211
633.5359027623053,0.10540860923548362
634.1957011036211,0.10596343161865403
634.8224651294877,0.10650402757367565
635.4491858999463,0.10705780409728062
636.1088452488184,0.10765498734827161
636.7354772458893,0.10823588604254393
637.3620660012202,0.10883004397460636
638.021586401559,0.10946983964436136
638.6480864115474,0.11009133907384666
639.2745431934563,0.1107262306803681
639.9339246891614,0.11140906488005851
640.5602927537657,0.11207161938614535
641.1866176039475,0.11274774448972381
641.8458602388964,0.11347418962186222
642.4720963997934,0.11417838435777196
643.0982893599139,0.11489636601734367
643.7573931779698,0.11566711640787025
644.3834974768215,0.11641364528746467
645.0095585885429,0.11717420874903586
645.6685236335434,0.11799005950142727
646.2944961119902,0.11877970600633625
646.9204254169454,0.11958366032209984
647.5463115528728,0.12040201663643689
