Raman Shift (cm-1),Fitted Intensity
159.26151312198635,0.015342828005668826
162.17892251266312,0.015534144453932868
165.06070388440276,0.01572731701971527
167.97629817665074,0.01592713706624243
170.89098012548493,0.016131446602946964
173.77006778237046,0.016337880805204374
176.68293717714914,0.01655156982963478
179.59489550712533,0.016770219060039344
182.50594319967058,0.016994000826755548
185.38144153980102,0.017220336335100707
188.29068006676243,0.017454866701782763
191.19900923170644,0.017695095250507956
194.07182265961455,0.0179382642893111
196.97834519226308,0.018190449565164628
199.8839596359394,0.018448986335433612
202.75409191031576,0.018710919798398184
205.65790225025557,0.018982812878942736
208.5608057718964,0.01926181664521744
211.42826064439942,0.0195447585671499
214.32936258615155,0.019838750462257512
217.22955897789507,0.02014074123664627
220.09434019320543,0.02044731724604868
222.9927375242005,0.02076621228380746
225.89023057112718,0.0210941531049598
228.75234186693342,0.021427458394773773
231.64803836756255,0.02177457127767984
234.54283184768065,0.0221319742304812
237.4022769547155,0.02249568810786451
240.2952763983085,0.0228749708862637
243.18737408261222,0.023266036479958296
246.04415672466348,0.023664573716567917
248.93446287752522,0.02408078442946406
251.82386852998388,0.024510587721135804
254.67799242389083,0.024949301797281116
257.565609045334,0.02540823225268317
260.41796602711474,0.02587722777887463
263.3037952786035,0.0263684367823172
266.18872612093764,0.026877226039434668
269.0384305290536,0.02739819870043352
271.9215764941182,0.02794497262296458
274.8038253026716,0.02851254752658759
277.65088083558294,0.02909503230150616
280.5313472549242,0.029707822723041698
283.37664243438485,0.030337786909188095
286.2553281173605,0.031001723047038413
289.13311872473423,0.03169398191388499
291.97577117291803,0.03240774030711925
294.85178352428557,0.03316233793585969
297.6926797004962,0.03394213279055084
300.5669154435891,0.03476852872791757
303.44025818556474,0.03563527214642473
306.2785177554506,0.036534517932611504
309.150086361853,0.03749154104107549
311.98659372863403,0.038487529380805255
314.85638984211255,0.039551017517700605
317.69114662786524,0.04066171000486352
320.55917188903913,0.041852135498455054
323.42630704161274,0.04311587316574875
326.25843576130865,0.044443880296857356
329.1238025236089,0.04587654716750316
331.9541847135806,0.04738913048924194
334.8177847211591,0.0490288679139671
337.6464219965019,0.05076873001727616
340.5082568828984,0.05266439923115415
343.3351508567066,0.05468592380597506
346.1952222534492,0.05689919152944763
349.0203745368344,0.05927014873136225
351.8786840734356,0.06187656616323314
354.7361080202609,0.06471339604749096
357.55864557949826,0.06776578884501679
360.4143101115624,0.07113120068141054
363.23511000427607,0.07475286213419088
366.08901674608205,0.07874058238628415
368.90808057645336,0.08301915912311578
371.7602311504961,0.08770773783625607
374.57756052071636,0.09270481807621624
377.42795654749716,0.09813348024707666
380.2435530577968,0.1038577277023371
383.0921961558306,0.10999734526519489
385.90606140446107,0.11637571314374028
388.7529531902692,0.1231018125292667
391.56508877352826,0.1299575887554997
394.41023086164205,0.13703575886029473
397.2206383738594,0.14408444296583364
400.0640323768239,0.15117901498582184
402.8727134103756,0.15805128840141214
405.71436093876036,0.1647638358652893
408.5213170840616,0.1710580800704392
411.36121974646085,0.17699318688420812
414.16645259197685,0.18234954255704675
417.00461199500205,0.1871942662452121
419.8081231272481,0.19137215971349555
422.6107791472823,0.19492851787099288
425.446331879084,0.19790401797839433
428.2472685572284,0.2002617334527165
431.0810820327788,0.20211673394269228
433.88030095069917,0.20350271156573344
436.71237676973396,0.20454899533718485
439.5098795071426,0.20533693392493085
442.3402192674366,0.20600035181593804
445.1360074021177,0.2066381608738911
447.930943955329,0.207369386772887
450.75868780728706,0.2083103888538645
453.5519121161087,0.20953307045598246
456.3779238904244,0.21114994840982254
459.1694375278166,0.2131904365741668
461.99371881542174,0.2157583364017644
464.7835233524238,0.21883264809014621
467.5724790401364,0.22246830302447193
470.39417274803054,0.22673649536429874
473.18142168360646,0.2315439021074197
476.00138886887726,0.23700813790336125
478.7869326185464,0.24299646918633183
481.60517486533354,0.24964816229327202
484.3890149934232,0.25679939748335645
487.17200899273666,0.2645214759504827
489.9876719528438,0.2729154019176863
492.76896466880135,0.28178161535295043
495.5829066375736,0.2913367578669566
498.3624996297294,0.30135824018966684
501.14124842855017,0.3119617276816177
503.9526170105346,0.323289215697903
506.7296684166504,0.33506972858230655
509.505876786945,0.3474245286897601
512.3146755106209,0.36048893192949194
515.0891888150436,0.37390959732655527
517.8962728359329,0.3879426640157463
520.6690926264382,0.4021590534976458
523.4410713071484,0.416596916464016
526.2455913408958,0.43126957804838445
529.0158788274384,0.4456297612387089
531.785326356061,0.45962357769503676
534.5872859139781,0.47315155488904387
537.3550445639485,0.48561424223348487
540.1219644057746,0.4968945827589594
542.9213669927594,0.50682396635515
545.686600267225,0.5149064693460845
548.4509958812232,0.521047438923446
551.2478449957853,0.5251077276275542
554.0105563494981,0.5268747730447415
556.805701690384,0.5263423952015562
559.5667303225964,0.5235467509674754
562.3269232040038,0.5185882192673519
565.0862807140293,0.5116235746029063
567.8780333537688,0.5027485762767714
570.6357112050464,0.49243064044525015
573.3925548263542,0.48085598022091036
576.1817644509756,0.4681633825731213
578.9369307080196,0.4549511792688103
581.6912638744288,0.4413526257396303
584.4779339570123,0.4274574829175378
587.2305920494691,0.41382218499785356
589.9824181885451,0.4004688746299703
592.7665521958479,0.3873948288436405
595.5167055471175,0.3750255053564882
598.2660280801974,0.3632814038571384
601.0145201715131,0.35221178513350304
603.7952814999189,0.34172027548593575
606.5421038421155,0.3320609108714952
609.2880968749887,0.3230935223163855
612.0663301881068,0.3147003025416618
614.8106557483188,0.3070518756477178
617.554153129593,0.3000113198967145
620.2968227067649,0.293543837262709
623.0716940541533,0.2875461961493731
625.8126991844802,0.28212689582127654
628.552877638358,0.27717905341349425
631.2922297897167,0.2726723410355328
634.0637452701958,0.26853161986650464
636.8014359932095,0.26482908660925214
639.5383015386324,0.26148888583248453
642.3073015987065,0.2584545963448784
645.0425079771339,0.2557777605474647
647.7768903008473,0.25340144198172315
650.5104489421938,0.25130847422508296
653.2431842732913,0.24948335054901477
656.0080062575216,0.24789486295571048
658.7390861754284,0.24656879618968125
661.4693439025905,0.24547485237616926
664.1987798102273,0.24460538748152705
666.9602641357596,0.24394875095381388
669.6880476268889,0.24351823819382099
672.4150104152941,0.24330558494044402
675.141152871307,0.243315220167717
677.8993055782594,0.24355993355424943
680.6237986072192,0.24404700799278845
683.3474724178923,0.24479602618282145
686.0703273797008,0.24583076094198075
688.7923638618704,0.24718135418667583
691.5463630106569,0.24890790605307386
694.2667537902307,0.2510149404673084
696.9863272009134,0.2535747203027918
699.705083611032,0.2566506475998815
702.4230233886883,0.26031632288533935
705.1728783546314,0.2647128847420908
707.8891761429404,0.26983210819318787
710.6046584062024,0.27582860521381014
713.3193255116239,0.2828191630652059
716.033177826208,0.29092937242396405
718.7462157167283,0.3002911674939805
721.491111983778,0.31117764986300184
724.2025123243511,0.32346312908623764
726.9130993442814,0.33739167137777504
729.6228734094693,0.3530691468816588
732.3318348855792,0.37057460246703083
735.0399841380749,0.3899495066652383
737.7799351068679,0.41145334096633707
740.4864512328204,0.43450512706086536
743.1921562345997,0.45921016300237305
745.8970504767931,0.4853496780583575
748.6011343237551,0.5126205654742335
751.3044081396256,0.5406346149351292
754.0394271625555,0.5692634640416389
756.741072259374,0.5972811660463482
759.4419084205874,0.6244362784387708
762.1419360094733,0.6501085088663919
764.8411553890837,0.6736787309062582
767.539566922238,0.6945643417182406
770.2371709715626,0.7122600342032444
772.9339678994475,0.7263853927296041
775.6624349602753,0.7368467671433093
778.3576090181923,0.7434768132420267
781.0519770449282,0.7469491328991842
783.7455394020071,0.748629137717051
786.4382964507422,0.751871332973942
789.1302485522319,0.7658785552133315
791.8213960673565,0.8158046645621239
794.5117393567816,0.9340686465045891
797.2012787809545,1.048172975685829
799.922404211542,0.9831215625053571
802.6103273114531,0.800070997396328
805.2974476305062,0.6654786298857447
807.9837655282827,0.5937209780643335
810.6692813641639,0.5503557490987411
813.3539954973021,0.5190146772523622
816.037908286642,0.49447199950598913
818.7210200909067,0.47508868353834843
821.4033312686151,0.46042458659862073
824.0848421780756,0.4505003736581138
826.7655531773598,0.4455140428346258
829.4777478409233,0.44571675034895974
832.1568504666102,0.45120278934838276
834.8351542594137,0.46177798761668143
837.5126595765614,0.476879810677774
840.1893667750774,0.49546397646295975
842.8652762117599,0.5160244152646494
845.5403882432074,0.5367541428254771
848.2147032257963,0.5558375169872894
850.8882215157028,0.5718052294404748
853.5609434688704,0.583841136063868
856.2328694410462,0.5919321769578032
858.9039997877626,0.596805226653852
861.5743348643446,0.5996749730176367
864.2438750258916,0.6018953325679178
866.9126206273068,0.6046312446161454
869.5805720232747,0.6086417025920812
872.2477295682729,0.6142088529264883
874.9140936165568,0.6211928758225725
877.5796645221853,0.6291608316196496
880.2444426389957,0.6375347281432376
882.9084283206321,0.645720356391521
885.5716219205024,0.653200003868031
888.2340237918252,0.6595888198488125
890.8956342876045,0.6646628607220076
893.5564537606224,0.6683681428483221
896.2164825634645,0.6708176418684356
898.8757210485091,0.6722798841968718
901.566194253428,0.6731691623977624
904.2238436478765,0.673984973045423
906.88070378462,0.6753295053939097
909.5047788508018,0.677778972642766
912.1600710251078,0.6819726566989621
914.8145749914547,0.6883799347354606
917.4682911007549,0.6973286203066301
920.1212197037094,0.7089173362073321
922.7733611508156,0.7229620685934345
925.4247157923564,0.7389664198397317
928.0752839784072,0.7561276006036258
930.725066058847,0.7733900035597938
933.3740623833291,0.7895587405044603
936.0222733013143,0.8034921557248138
938.669699162052,0.8144187770628303
941.3163403145809,0.8224907444705767
943.9621971077358,0.8297132346372424
946.607269890148,0.840707085514185
949.2515590102339,0.860118486093705
951.8950648162136,0.8825965589387288
954.5377876560888,0.8846462753475295
957.1797278776648,0.8414124526471121
959.8208858285398,0.7568887685244933
962.4612618561077,0.6605382091266276
965.1008563075484,0.5758637505887773
967.7396695298376,0.5077305620963478
970.3777018697583,0.4520531590370206
973.0149536738754,0.40475931834172507
975.65142528855,0.3636566671949639
978.2871170599428,0.32768653346339455
980.8902880408277,0.2965911936579165
983.5244305486303,0.2691457069990449
986.1577942462391,0.24532074495654493
988.7903794789963,0.22469381474722008
991.4221865920408,0.20685799017124426
994.0532159303111,0.19143194981249032
996.6834678385349,0.17806873504290777
999.3129426612431,0.16646080351956347
1001.9416407427561,0.1563413442562304
1004.5695624271975,0.14748271864816684
1007.1967080584836,0.1396930773393722
1009.8230779803271,0.13281207014645774
1012.4170434801454,0.12677573111675977
1015.041872349022,0.12132711057222387
1017.665926534246,0.11645211641933963
1020.2892063787294,0.11207407905954171
1022.9117122251773,0.10812898255591
1025.5334444160871,0.10456314607182993
1028.15440329376,0.10133133717938365
1030.7745892002931,0.09839524734794684
1033.3940024775802,0.09572226402419934
1035.9810981708106,0.09331255113481911
1038.598976513018,0.0910835596319865
1041.2160832463414,0.08904527576592566
1043.832418711885,0.08717967899007242
1046.447983250535,0.08547106603287055
1049.0627772029802,0.08390569906912451
1051.676800909714,0.08247151563488825
1054.290054711022,0.08115788822510345
1056.8710678120515,0.07996928380377867
1059.48279208834,0.07886846402014552
1062.093747474777,0.07786316656752842
1064.7039343108554,0.07694679013495531
1067.313352935871,0.07611344074754416
1069.9220036889128,0.07535784559292932
1072.4984711957586,0.07468308557066614
1075.105596462614,0.07406850185629539
1077.7119548694973,0.07351893820707833
1080.317546754708,0.07303096169660192
1082.9223724563308,0.07260148180284792
1085.5264323122756,0.07222771489409147
1088.1297266602414,0.07190715327172587
1090.700904617097,0.07164049151371754
1093.3026781742628,0.07141921114469804
1095.90368723129,0.07124503521213925
1098.5039321250988,0.07111631834314029
1101.1034131923952,0.07103158525335347
1103.6708254619662,0.07098977417793702
1106.2687890782108,0.07098870001286542
1108.8659898728438,0.07102808138286384
1111.4624281817887,0.0711069946289673
1114.0581043407765,0.07122462944642206
1116.6217591897112,0.07137818195044232
1119.2159212276165,0.07157079658132712
1121.8093221175222,0.07180031348114822
1124.4019621943662,0.07206630452158191
1126.9938417929043,0.07236842351958873
1129.5537474636767,0.07270211724593156
1132.1441162613737,0.07307533112995968
1134.7337255797866,0.07348408568174683
1137.322575752878,0.07392832239805469
1139.9106671144218,0.07440804713466247
1142.466831825419,0.074916907397998
1145.0534156966605,0.0754674402705675
1147.6392417524658,0.07605383909324523
1150.2243103258224,0.07667634449787578
1152.7774899721844,0.07732709501729887
1155.3610536951164,0.07802230706979968
1157.9438609293902,0.07875466408352913
1160.5259120072114,0.07952461627560625
1163.1072072606003,0.08033266353172364
1165.6566606759006,0.08116892103070318
1168.2364543720396,0.08205437534961005
1170.8154932346333,0.0829797047094567
1173.3937775949307,0.08394559759404147
1175.940257690534,0.08494040384061766
1178.5170431196166,0.08598915641226543
1181.0930750349762,0.08708079363080083
1183.6683537670833,0.08821617710733608
1186.2118657414467,0.08938172226409724
1188.7856481622657,0.09060678844332665
1191.3586783861065,0.09187841039654504
1193.9309567426717,0.09319760150436289
1196.471505782134,0.09454863523776832
1199.0422904412299,0.09596553004524702
1201.6123242170252,0.09743320976448658
1204.1506566845674,0.09893418205587941
1206.7191987172919,0.10050619471300999
1209.2869908489847,0.10213242486805021
1211.8540334080099,0.10381405091848292
1214.389411983815,0.10553097375554568
1216.9549654029506,0.10732624215583095
1219.5197702293917,0.10918043861665969
1222.0529389950316,0.1110712997193983
1224.61625662804,0.11304607141344218
1227.1788266466283,0.11508316408177469
1229.7406493778217,0.11718363870592632
1232.2708732581305,0.11932203017962892
1234.8312113884967,0.12155142034510415
1237.3908032074723,0.12384697285470975
1239.9188240118929,0.12618057555145076
1242.4769331685857,0.12860977553849512
1245.0342969881858,0.13110702115114953
1247.560117592806,0.13364134149040402
1250.116000685306,0.13627472226304693
1252.6711394133126,0.1389766493931107
1255.194762689218,0.14171310273381896
1257.7484226219312,0.14455035057560545
1260.3013391610693,0.14745468932331468
1262.822767974354,0.15038891094642384
1265.3742076466478,0.15342325307046242
1267.924904894593,0.1565206534085151
1270.4441421063602,0.15964067426055698
1272.993364412563,0.16285703536457485
1275.5418452619597,0.16612926042048698
1278.0588937283464,0.16941379715911584
1280.6059015577484,0.17278719000972576
1283.1521688962057,0.17620568052252014
1285.6670314683906,0.17962294427669315
1288.2118277052796,0.18311755543471567
1290.755884415401,0.18664287443128635
1293.2685639396113,0.19015044107327497
1295.811151463251,0.19371999061267836
1298.3530004226377,0.19730274166575298
1300.8634997401532,0.20084906494010524
1303.403881424827,0.20443899991647668
1305.9129317732186,0.2079796075189197
1308.4518474532706,0.21155069903352716
1310.9900261682633,0.2151025132660573
1313.4969010306886,0.21858637825096128
1316.0336156473168,0.22208121880755244
1318.5695942569437,0.22553861826568478
1321.074296461582,0.228912379009277
1323.6088128757874,0.23228001172814317
1326.112071126503,0.23555622897102996
1328.6451266095319,0.23881735457684491
1331.1774476773753,0.2420201634629428
1333.6785379692556,0.24512490739718035
1336.209400003383,0.24820576191998292
1338.7090494631484,0.2511876198689467
1341.2384537241596,0.2541429519821458
1343.76712515721,0.2570353252013007
1346.2646113435585,0.25983181207431166
1348.7918268954818,0.2626018066612289
1351.2878753625337,0.26528000232665605
1353.8136362903097,0.2679333366031833
1356.338665972784,0.27053044432437995
1358.832555838333,0.273042543941967
1361.3561327831994,0.2755321621931466
1363.8485880333137,0.27794015647286074
1366.3707134939323,0.2803255979212189
1368.8921092873425,0.2826585021242122
1371.3824105944368,0.2849106754832109
1373.9023567847216,0.28713517491587515
1376.3912265713043,0.2892756773115294
1378.9097244082113,0.29138069356910573
1381.3971639082774,0.29339493162883834
1383.914214640121,0.2953619405301873
1386.4002250862322,0.29722795060289053
1388.9158299598967,0.29903116785938516
1391.4307079939972,0.30074022282215646
1393.9145728441363,0.30232765973195547
1396.4280068914595,0.30382305657734426
1398.9104457665926,0.3051810815956407
1401.422437070447,0.3064252811910937
1403.9034511981918,0.3075163209744649
1406.4140010004412,0.30847158219385357
1408.893591607004,0.3092594440231146
1411.4027011481012,0.30989107621220824
1413.8808694582804,0.31034422502087833
1416.388539977259,0.3106238821858887
1418.8954870924463,0.31071860933645085
1421.3715199489052,0.31062724301940137
1423.877029901585,0.31034569393678646
1426.3516435212223,0.309880504242612
1428.8557175468777,0.30922175116028977
1431.3289131495767,0.3083883706693098
1433.8315524822574,0.3073648222085037
1436.3033312865118,0.3061820767191028
1438.8045371588632,0.30481923947345974
1441.2749003817698,0.3033183855283033
1443.7746740250223,0.3016535939712933
1446.2436228822844,0.2998766215477841
1448.7419655262602,0.29795693552481556
1451.2095012321843,0.2959541827528185
1453.7064141053015,0.293833740085524
1456.1725378728079,0.2916611273193866
1458.6680222020732,0.2893982717226577
1461.1327352426997,0.28711446676237234
1463.6267922537227,0.2847689496955334
1466.090095777603,0.2824327322121591
1468.582726694589,0.2800632247281188
1471.044621910496,0.2777312429786219
1473.5358279562424,0.2753933095574271
1475.996316071556,0.2731183361576733
1478.4860984674815,0.27086293626242985
1480.9451806882025,0.268692649320957
1483.4335406543069,0.26656515862693964
1485.8912181850574,0.264541411166061
1488.3781569399653,0.2625811010514935
1490.8344309839958,0.2607395999732495
1493.2900079848114,0.2590000397405691
1495.7748215041174,0.25734977777845836
1498.2289968168734,0.25583446413808114
1500.7123921617567,0.25442239259490484
1503.1651669862695,0.2531520623562501
1505.647145370498,0.2519963516052127
1508.0985209052233,0.25098625615402304
1510.579083541168,0.2500996946862484
1513.02906098319,0.2493599282885489
1515.5082090818432,0.24875023148411907
1517.9567896268818,0.24828600162659767
1520.4046764008053,0.24795917960422217
1522.8817092402714,0.24776784301144225
1525.3282009046197,0.24771556940203918
1527.803822224585,0.24779944062977946
1530.2489199716838,0.24801522707125948
1532.7231309783128,0.24836533406596328
1535.16683599912,0.2488378953797628
1537.6098493197496,0.24943232265626208
1540.0819513813403,0.25015332730839157
1542.5235737559778,0.250978143175351
1544.994268510025,0.25192069808777917
1547.4345011262485,0.25295147025346687
1549.8740435159852,0.2540737114449981
1552.3426338181598,0.2552943832218877
1554.7807882247253,0.2565750012575792
1557.2479742165997,0.25793679144183435
