Raman Shift (cm-1),Fitted Intensity
159.26151312198635,0.03594526477695267
162.17892251266312,0.03641061333816321
165.06070388440276,0.03688093391044255
167.97629817665074,0.03736791914014027
170.89098012548493,0.03786634643978426
173.77006778237046,0.03837046683870016
176.68293717714914,0.0388928387769243
179.59489550712533,0.039427894098559776
182.50594319967058,0.03997608763457758
185.38144153980102,0.040531125736366996
188.29068006676243,0.04110687728470102
191.19900923170644,0.04169726071062809
194.07182265961455,0.04229552491752504
196.97834519226308,0.0429166570096209
199.8839596359394,0.04355414622829384
202.75409191031576,0.04420073534874085
205.65790225025557,0.044872667713294956
208.5608057718964,0.045562959848179034
211.42826064439942,0.04626379287710694
214.32936258615155,0.046992827730998846
217.22955897789507,0.04774255900302947
220.09434019320543,0.04850454255747711
222.9927375242005,0.049298046533868406
225.89023057112718,0.05011498770476795
228.75234186693342,0.050946223423563655
231.64803836756255,0.05181285300658057
234.54283184768065,0.0527061515895695
237.4022769547155,0.05361619311959312
240.2952763983085,0.054566173844751396
243.18737408261222,0.05554665383453677
246.04415672466348,0.05654682446346485
248.93446287752522,0.057592295449012856
251.82386852998388,0.05867282641564219
254.67799242389083,0.05977660920769076
257.565609045334,0.06093204501436803
260.41796602711474,0.0621135087340917
263.3037952786035,0.06335150402525033
266.18872612093764,0.06463422448971526
269.0384305290536,0.06594787374332567
271.9215764941182,0.06732654697878154
274.8038253026716,0.06875732124337858
277.65088083558294,0.07022495985071078
280.5313472549242,0.07176775525491767
283.37664243438485,0.0733520337121668
286.2553281173605,0.07501927028082545
289.13311872473423,0.07675428187711283
291.97577117291803,0.07853887598225087
294.85178352428557,0.08041998822360166
297.6926797004962,0.08235692782786458
300.5669154435891,0.08440077096255993
303.44025818556474,0.08653336085602298
306.2785177554506,0.08873257999169887
309.150086361853,0.0910565923868747
311.98659372863403,0.09345541741324147
314.85638984211255,0.09599256998210597
317.69114662786524,0.09861353422097864
320.55917188903913,0.10138772962376828
323.42630704161274,0.10429088561812173
326.25843576130865,0.10729287724564297
329.1238025236089,0.11047311903673585
331.9541847135806,0.11376310845025715
334.8177847211591,0.11724970015927455
337.6464219965019,0.12085756294778743
340.5082568828984,0.12468164955847866
343.3351508567066,0.1286389838018655
346.1952222534492,0.13283328725356475
349.0203745368344,0.13717305543632644
351.8786840734356,0.14177145141902772
354.7361080202609,0.14658612407902316
357.55864557949826,0.1515644686486438
360.4143101115624,0.1568350759037431
363.23511000427607,0.1622808679141887
366.08901674608205,0.16804147963456872
368.90808057645336,0.1739878392743925
371.7602311504961,0.18027119115767892
374.57756052071636,0.18674944674127816
377.42795654749716,0.19358595335829265
380.2435530577968,0.20062461145630844
383.0921961558306,0.20804127135762546
385.90606140446107,0.2156648857262091
388.7529531902692,0.2236840898068698
391.56508877352826,0.23191204037581795
394.41023086164205,0.24055029489392227
397.2206383738594,0.24939548798100789
400.0640323768239,0.25866206347771303
402.8727134103756,0.26812956448444725
405.71436093876036,0.2780250825177874
408.5213170840616,0.2881106939556134
411.36121974646085,0.29862566651311534
414.16645259197685,0.30931446883156405
417.00461199500205,0.320427812050297
419.8081231272481,0.33169269378485056
422.6107791472823,0.34322963794011874
425.446331879084,0.35517046748227865
428.2472685572284,0.3672170040085388
431.0810820327788,0.37964341332327817
433.88030095069917,0.3921359213043896
436.71237676973396,0.40497521581142915
439.5098795071426,0.4178334331562448
442.3402192674366,0.43099566879715573
445.1360074021177,0.44412198927972507
447.930943955329,0.45733980245885514
450.75868780728706,0.4707787433629974
453.5519121161087,0.484085818590355
456.3779238904244,0.4975460491493796
459.1694375278166,0.5108019383169067
461.99371881542174,0.5241334462447553
464.7835233524238,0.5371826626067135
467.5724790401364,0.5500673280943408
470.39417274803054,0.562895965121296
473.18142168360646,0.5753189269278314
476.00138886887726,0.5875899191431109
478.7869326185464,0.5993714477459191
481.60517486533354,0.6109012745396057
484.3890149934232,0.6218597655897802
487.17200899273666,0.6323425920897482
489.9876719528438,0.6424234990694211
492.76896466880135,0.6518205158570789
495.5829066375736,0.6607193446616708
498.3624996297294,0.6688702905255389
501.14124842855017,0.676348188717576
503.9526170105346,0.6831984334127531
506.7296684166504,0.6892292363771414
509.505876786945,0.6945017865780473
512.3146755106209,0.6990447542138317
515.0891888150436,0.7027334801434078
517.8962728359329,0.7056447702348687
520.6690926264382,0.7077022228217271
523.4410713071484,0.7089432665771322
526.2455913408958,0.7093709799374363
529.0158788274384,0.7089831695054817
531.785326356061,0.7078027732866453
534.5872859139781,0.7058195176430904
537.3550445639485,0.7031036499375508
540.1219644057746,0.6996637060775207
542.9213669927594,0.6954778404516989
545.686600267225,0.6906823627167716
548.4509958812232,0.6852717982046087
551.2478449957853,0.6792146707743043
554.0105563494981,0.6727028478369899
556.805701690384,0.6656308129148474
559.5667303225964,0.6582200454570768
562.3269232040038,0.6504437343998705
565.0862807140293,0.6423581318543043
567.8780333537688,0.6339189198770194
570.6357112050464,0.6253857915130832
573.3925548263542,0.6167181546294016
576.1817644509756,0.6078687834355885
578.9369307080196,0.599106759665044
581.6912638744288,0.5903839240022287
584.4779339570123,0.5816526499048401
587.2305920494691,0.5731752022404271
589.9824181885451,0.5648987634449922
592.7665521958479,0.5567778459970767
595.5167055471175,0.549053151022527
598.2660280801974,0.541670400920737
601.0145201715131,0.5346705338496971
603.7952814999189,0.5280146652615524
606.5421038421155,0.52189584314235
609.2880968749887,0.5162628706179371
612.0663301881068,0.511084259917349
614.8106557483188,0.5065067415757014
617.554153129593,0.5024848820997243
620.2968227067649,0.49903418486512635
623.0716940541533,0.4961353181134837
625.8126991844802,0.4938651215389178
628.552877638358,0.4921894249244163
631.2922297897167,0.49110828958737807
634.0637452701958,0.4906156895164735
636.8014359932095,0.4907158734107149
639.5383015386324,0.49138839582761656
642.3073015987065,0.49263686668400974
645.0425079771339,0.4944134133424468
647.7768903008473,0.4967083055024974
650.5104489421938,0.4994971315786717
653.2431842732913,0.5027524828608082
656.0080062575216,0.5064911212061397
658.7390861754284,0.5105907837316825
661.4693439025905,0.5150580206067934
664.1987798102273,0.5198551853145006
666.9602641357596,0.5250055028214522
669.6880476268889,0.5303444706080839
672.4150104152941,0.5358887595596519
675.141152871307,0.5415941706594702
677.8993055782594,0.5474862499246429
680.6237986072192,0.5533785520986427
683.3474724178923,0.5592946884825228
686.0703273797008,0.5651888806499208
688.7923638618704,0.5710158971069744
691.5463630106569,0.5767994807325053
694.2667537902307,0.582358656633053
696.9863272009134,0.5877220965668872
699.705083611032,0.5928512430158555
702.4230233886883,0.597710445771006
705.1728783546314,0.602320459544697
707.8891761429404,0.6065431308794237
710.6046584062024,0.6104118350122779
713.3193255116239,0.6139085644753925
716.033177826208,0.6170214401130855
718.7462157167283,0.6197455301717252
721.491111983778,0.6221096049020566
724.2025123243511,0.6240692850044347
726.9130993442814,0.6256767328608583
729.6228734094693,0.6269645652036752
732.3318348855792,0.6279772672246003
735.0399841380749,0.6287719141619441
737.7799351068679,0.6294256288706173
740.4864512328204,0.6300059427119417
743.1921562345997,0.630614227025319
745.8970504767931,0.6313504545917854
748.6011343237551,0.6323162993266742
751.3044081396256,0.6336074661664965
754.0394271625555,0.6353270083994805
756.741072259374,0.6374869053399487
759.4419084205874,0.6401178181508758
762.1419360094733,0.6431822374037105
764.8411553890837,0.6465847822689991
767.539566922238,0.6501700793341804
770.2371709715626,0.6537279786563404
772.9339678994475,0.6570071141114301
775.6624349602753,0.6597649314984612
778.3576090181923,0.6616704686983965
781.0519770449282,0.6625370046185982
783.7455394020071,0.6622092935785097
786.4382964507422,0.6606231696248167
789.1302485522319,0.6578183873227083
791.8213960673565,0.6539390099683535
794.5117393567816,0.6492209990740448
797.2012787809545,0.6439687917854161
799.922404211542,0.638459066145312
802.6103273114531,0.6331721242454371
805.2974476305062,0.6283596597590206
807.9837655282827,0.6242833172445121
810.6692813641639,0.6211312596088838
813.3539954973021,0.6190090537255256
816.037908286642,0.617939265825413
818.7210200909067,0.6178682496722508
821.4033312686151,0.6186780372461238
824.0848421780756,0.6202011411219764
826.7655531773598,0.6222363358655391
829.4777478409233,0.6245928518954689
832.1568504666102,0.6269880561691061
834.8351542594137,0.6292318135336699
837.5126595765614,0.6311243255949024
840.1893667750774,0.6324904903254381
842.8652762117599,0.6331855354652033
845.5403882432074,0.633098834209913
848.2147032257963,0.6321560466767474
850.8882215157028,0.6303197137806706
853.5609434688704,0.6275884250082517
856.2328694410462,0.623994694944893
858.9039997877626,0.6196017141241362
861.5743348643446,0.6144991822973754
864.2438750258916,0.6087984801863515
866.9126206273068,0.6026274850684746
869.5805720232747,0.5961253875048922
872.2477295682729,0.5894379325296768
874.9140936165568,0.5827136192085406
877.5796645221853,0.5761016186900223
880.2444426389957,0.5697526764236052
882.9084283206321,0.563825423969883
885.5716219205024,0.5585030912341089
888.2340237918252,0.5540301971996102
890.8956342876045,0.5507806717111048
893.5564537606224,0.5493395157510378
896.2164825634645,0.5504558793973301
898.8757210485091,0.5545399136219775
901.566194253428,0.560657250311362
904.2238436478765,0.5655152252205407
906.88070378462,0.5653859795273939
909.5047788508018,0.5589714976011361
912.1600710251078,0.5483352323014893
914.8145749914547,0.537301215509933
917.4682911007549,0.5283575410443786
920.1212197037094,0.5219492671399163
922.7733611508156,0.5174307483941945
925.4247157923564,0.5140293290821087
928.0752839784072,0.5111971259856618
930.725066058847,0.5086018167982829
933.3740623833291,0.5060434022378615
936.0222733013143,0.5033945432536077
938.669699162052,0.5005687684450758
941.3163403145809,0.4975045853623574
943.9621971077358,0.49415733408540724
946.607269890148,0.4904947541391047
949.2515590102339,0.48649439213587753
951.8950648162136,0.4821419625728926
954.5377876560888,0.4774302245784083
957.1797278776648,0.4723581526862493
959.8208858285398,0.4669302901129239
962.4612618561077,0.46115623779945175
965.1008563075484,0.45505028456682745
967.7396695298376,0.4486312549343778
970.3777018697583,0.4419228060908384
973.0149536738754,0.4349548451482621
975.65142528855,0.4277682466770223
978.2871170599428,0.42043146950219346
980.8902880408277,0.4132012701857353
983.5244305486303,0.40669772763522266
986.1577942462391,0.4188590675069373
988.7903794789963,0.40607386488868424
991.4221865920408,0.3823319039042039
994.0532159303111,0.3729245513605521
996.6834678385349,0.36437826956737185
999.3129426612431,0.35604193409302876
1001.9416407427561,0.3478144875943947
1004.5695624271975,0.33968348131538806
1007.1967080584836,0.3316585606504319
1009.8230779803271,0.3237557872247047
1012.4170434801454,0.3160853726040146
1015.041872349022,0.3084773220664704
1017.665926534246,0.3010422076090347
1020.2892063787294,0.29379470216713005
1022.9117122251773,0.28674782641531626
1025.5334444160871,0.279912881300914
1028.15440329376,0.2732994411424675
1030.7745892002931,0.26691538555887023
1033.3940024775802,0.2607669580598978
1035.9810981708106,0.2549285814856995
1038.598976513018,0.24926105062315085
1041.2160832463414,0.24383888895495093
1043.832418711885,0.23866270607091866
1046.447983250535,0.2337319649749148
1049.0627772029802,0.22904509617232283
1051.676800909714,0.22459961173630807
1054.290054711022,0.2203922177158456
1056.8710678120515,0.21646541881016612
1059.48279208834,0.21271890635273438
1062.093747474777,0.20919690180047293
1064.7039343108554,0.20589393873392378
1067.313352935871,0.20280424040150663
1069.9220036889128,0.19992180093522244
1072.4984711957586,0.1972715927005627
1075.105596462614,0.19478279105340124
1077.7119548694973,0.1924826393431145
1080.317546754708,0.1903648877115386
1082.9223724563308,0.1884233589720497
1085.5264323122756,0.1866519893510203
1088.1297266602414,0.18504486331328776
1090.700904617097,0.18361277482437105
1093.3026781742628,0.1823153128171347
1095.90368723129,0.18116556786752624
1098.5039321250988,0.18015845872378988
1101.1034131923952,0.17928915218287828
1103.6708254619662,0.17856116415302842
1106.2687890782108,0.17795246512145615
1108.8659898728438,0.17746867258886
1111.4624281817887,0.17710599716135333
1114.0581043407765,0.1768609130227521
1116.6217591897112,0.1767310622239747
1119.2159212276165,0.1767102979536378
1121.8093221175222,0.1767981266413131
1124.4019621943662,0.17699203452683243
1126.9938417929043,0.1772897474013005
1129.5537474636767,0.17768381261749702
1132.1441162613737,0.17818204278791885
1134.7337255797866,0.17877864201642005
1137.322575752878,0.17947222254656356
1139.9106671144218,0.18026160135237046
1142.466831825419,0.18113457943947614
1145.0534156966605,0.18211166199884027
1147.6392417524658,0.1831821613939128
1150.2243103258224,0.1843456457072863
1152.7774899721844,0.18558616999168565
1155.3610536951164,0.1869339003622576
1157.9438609293902,0.1883743373305346
1160.5259120072114,0.18990770995174722
1163.1072072606003,0.19153440141554562
1165.6566606759006,0.19323365451622987
1168.2364543720396,0.19504758658401902
1170.8154932346333,0.19695686274840896
1173.3937775949307,0.19896244414776224
1175.940257690534,0.20103950739320606
1178.5170431196166,0.20323993199208762
1181.0930750349762,0.2055403397622833
1183.6683537670833,0.20794222293915077
1186.2118657414467,0.21041640006933043
1188.7856481622657,0.21302494285938217
1191.3586783861065,0.21574016792252926
1193.9309567426717,0.218564060573466
1196.471505782134,0.22146269852652217
1199.0422904412299,0.22450897538563047
1201.6123242170252,0.22767054222537508
1204.1506566845674,0.2309096166290463
1206.7191987172919,0.23430771742856374
1209.2869908489847,0.23782870101215958
1211.8540334080099,0.2414753073550392
1214.389411983815,0.24520410938261233
1216.9549654029506,0.24910894084849328
1219.5197702293917,0.253148102921294
1222.0529389950316,0.2572735116254825
1224.61625662804,0.261588883329474
1227.1788266466283,0.2660479220049663
1229.7406493778217,0.27065384893235234
1232.2708732581305,0.27535170553379085
1234.8312113884967,0.28025930514025865
1237.3908032074723,0.2853235304498825
1239.9188240118929,0.29048372030573266
1242.4769331685857,0.2958689067549521
1245.0342969881858,0.301420276677902
1247.560117592806,0.30707095161469294
1250.116000685306,0.3129616793279524
1252.6711394133126,0.319027395680048
1255.194762689218,0.3251944680687277
1257.7484226219312,0.3316157484821989
1260.3013391610693,0.3382193354776598
1262.822767974354,0.3449243106595055
1265.3742076466478,0.35189586060750433
1267.924904894593,0.3590546619523466
1270.4441421063602,0.36631202876349306
1272.993364412563,0.3738455083354672
1275.5418452619597,0.3815678275637023
1278.0588937283464,0.38938216802036046
1280.6059015577484,0.39747822799409394
1283.1521688962057,0.4057603963698226
1285.6670314683906,0.414123564504174
1288.2118277052796,0.4227691324892175
1290.755884415401,0.43159301213190615
1293.2685639396113,0.4404819613365407
1295.811151463251,0.4496484292849616
1298.3530004226377,0.4589800842150338
1300.8634997401532,0.4683561243531699
1303.403881424827,0.47799926905599427
1305.9129317732186,0.4876708470480843
1308.4518474532706,0.4975999629217018
1310.9900261682633,0.507662384450204
1313.4969010306886,0.517727264325101
1316.0336156473168,0.528032669256889
1318.5695942569437,0.5384490942819378
1321.074296461582,0.5488417913693469
1323.6088128757874,0.5594570991859443
1326.112071126503,0.570032490894082
1328.6451266095319,0.5808194414449767
1331.1774476773753,0.5916834451657101
1333.6785379692556,0.6024868000226626
1336.209400003383,0.6134880551198567
1338.7090494631484,0.6244177830853131
1341.2384537241596,0.6355386607903178
1343.76712515721,0.6467142633479382
1346.2646113435585,0.657805859546756
1348.7918268954818,0.6690810184614839
1351.2878753625337,0.6802651343328294
1353.8136362903097,0.6916278018342873
1356.338665972784,0.7030291930677004
1358.832555838333,0.7143268680917833
1361.3561327831994,0.7257908828958702
1363.8485880333137,0.7371382277437942
1366.3707134939323,0.7486370818389879
1368.8921092873425,0.7601384566036592
1371.3824105944368,0.7714909276773554
1373.9023567847216,0.7829557764858368
1376.3912265713043,0.794238531193277
1378.9097244082113,0.805592750644563
1381.3971639082774,0.8167203100156437
1383.914214640121,0.8278642673487725
1386.4002250862322,0.8387247880641779
1388.9158299598967,0.8495314980634797
1391.4307079939972,0.8601119650930027
1393.9145728441363,0.8703015017703258
1396.4280068914595,0.8803039473425908
1398.9104457665926,0.8898318245459883
1401.422437070447,0.8990682381145456
1403.9034511981918,0.9077406243101764
1406.4140010004412,0.9160087803295001
1408.893591607004,0.9236223632616759
1411.4027011481012,0.9307156620232793
1413.8808694582804,0.9370684796423246
1416.388539977259,0.9427878433100664
1418.8954870924463,0.9477467793743689
1421.3715199489052,0.9518586159857614
1423.877029901585,0.9551871415811206
1426.3516435212223,0.9576214685080945
1428.8557175468777,0.9591957492128751
1431.3289131495767,0.9598536288348978
1433.8315524822574,0.959599356680679
1436.3033312865118,0.9584345512913155
1438.8045371588632,0.9563335858513687
1441.2749003817698,0.9533570767107632
1443.7746740250223,0.9494498110716707
1446.2436228822844,0.944729889664377
1448.7419655262602,0.939113082335377
1451.2095012321843,0.9327710646138766
1453.7064141053015,0.9255914949642438
1456.1725378728079,0.9177936940736431
1458.6680222020732,0.9092385347173169
1461.1327352426997,0.9001855751578952
1463.6267922537227,0.8904707240011489
1466.090095777603,0.8803855100071525
1468.582726694589,0.8697432356910454
1471.044621910496,0.8588588791190211
1473.5358279562424,0.8475260175308209
1475.996316071556,0.8360748242473406
1478.4860984674815,0.8242824819030203
1480.9451806882025,0.8124867664450658
1483.4335406543069,0.8004521240200094
1485.8912181850574,0.788517255662397
1488.3781569399653,0.7764377035597727
1490.8344309839958,0.7645474542638625
1493.2900079848114,0.7527403141987565
1495.7748215041174,0.7409110017937576
1498.2289968168734,0.7293781887336533
1500.7123921617567,0.7178916382663316
1503.1651669862695,0.7067556865474754
1505.647145370498,0.6957237755234469
1508.0985209052233,0.6850835990080515
1510.579083541168,0.674595167357917
1513.02906098319,0.6645279196303794
1515.5082090818432,0.6546508931580745
1517.9567896268818,0.6452142250037765
1520.4046764008053,0.6361069872300814
1522.8817092402714,0.6272324297634752
1525.3282009046197,0.618810786557797
1527.803822224585,0.6106414680153147
1530.2489199716838,0.6029245346041937
1532.7231309783128,0.5954735876484861
1535.16683599912,0.5884686377982468
1537.6098493197496,0.5818170012031919
1540.0819513813403,0.5754421109012237
1542.5235737559778,0.569494574994292
1544.994268510025,0.5638252239042353
1547.4345011262485,0.5585656310539642
1549.8740435159852,0.5536394600869834
1552.3426338181598,0.5489857364537996
1554.7807882247253,0.5447087351167617
1557.2479742165997,0.5406952115002301
1559.6847418242032,0.5370321701562897
1562.1505247037494,0.533619459160059
1564.5859066952507,0.5305277360229662
1567.0206005171167,0.5277017357827984
1569.4842852159818,0.5250982143316867
