Raman Shift (cm-1),Fitted Intensity
159.26151312198635,0.0355462378992245
162.17892251266312,0.03601939470772138
165.06070388440276,0.03649808926579654
167.97629817665074,0.03699425943468255
170.89098012548493,0.037502632777739915
173.77006778237046,0.03801737761403255
176.68293717714914,0.03855136180747977
179.59489550712533,0.0390989519775166
182.50594319967058,0.039660665046358276
185.38144153980102,0.04023009412106782
188.29068006676243,0.04082152574710279
191.19900923170644,0.04142878829106578
194.07182265961455,0.04204498929780612
196.97834519226308,0.04268563614956893
199.8839596359394,0.04334410545223097
202.75409191031576,0.0440129648893438
205.65790225025557,0.04470910418452532
208.5608057718964,0.04542540041315085
211.42826064439942,0.046153818873945575
214.32936258615155,0.046912822226622686
217.22955897789507,0.04769473343790327
220.09434019320543,0.04849084292262146
222.9927375242005,0.04932141217438788
225.89023057112718,0.05017814713995838
228.75234186693342,0.05105157854675389
231.64803836756255,0.05196403535027651
234.54283184768065,0.05290653307647639
237.4022769547155,0.053868742497152365
240.2952763983085,0.054875380052463466
243.18737408261222,0.05591668383853149
246.04415672466348,0.056981344599867007
248.93446287752522,0.05809684743413668
251.82386852998388,0.05925254785195361
254.67799242389083,0.060436010739803196
257.565609045334,0.06167794260756386
260.41796602711474,0.06295105947457708
263.3037952786035,0.0642885019304806
266.18872612093764,0.06567785134964407
269.0384305290536,0.0671043776370875
271.9215764941182,0.06860538310269812
274.8038253026716,0.07016713948495294
277.65088083558294,0.07177320700456531
280.5313472549242,0.07346573936767622
283.37664243438485,0.07520801970764224
286.2553281173605,0.07704586012017861
289.13311872473423,0.07896276356187994
291.97577117291803,0.08093867284321583
294.85178352428557,0.08302561715506343
297.6926797004962,0.08517844731068258
300.5669154435891,0.08745384552775512
303.44025818556474,0.08983147947976389
306.2785177554506,0.09228634392456604
309.150086361853,0.09488294731505574
311.98659372863403,0.09756489711308582
314.85638984211255,0.10040248772892853
317.69114662786524,0.103333869182263
320.55917188903913,0.10643559696451778
323.42630704161274,0.10967921317109842
326.25843576130865,0.11302959458047653
329.1238025236089,0.11657360729649062
331.9541847135806,0.12023292551104578
334.8177847211591,0.1241018679895424
337.6464219965019,0.12809432154277528
340.5082568828984,0.1323125177725234
343.3351508567066,0.13666185174395287
346.1952222534492,0.1412529102155672
349.0203745368344,0.1459819058600196
351.8786840734356,0.15096820013614837
354.7361080202609,0.15616122364220858
357.55864557949826,0.16150033338955577
360.4143101115624,0.16711880778492308
363.23511000427607,0.17288711850293897
366.08901674608205,0.17894824125951825
368.90808057645336,0.1851614355337448
371.7602311504961,0.19167968044432476
374.57756052071636,0.198350619655607
377.42795654749716,0.2053374968989884
380.2435530577968,0.21247602786572128
383.0921961558306,0.21993992744721513
385.90606140446107,0.22755275855967055
388.7529531902692,0.23549884530833054
391.56508877352826,0.24358944943312072
394.41023086164205,0.2520195551619037
397.2206383738594,0.2605880352886339
400.0640323768239,0.2695004741951723
402.8727134103756,0.27854331156521406
405.71436093876036,0.2879325327046453
408.5213170840616,0.2974421302245028
411.36121974646085,0.3072981200570635
414.16645259197685,0.3172620599206299
417.00461199500205,0.32756942181041365
419.8081231272481,0.3379693779693819
422.6107791472823,0.34857700592367785
425.446331879084,0.3595163297621002
428.2472685572284,0.37051823611008894
431.0810820327788,0.3818376894300728
433.88030095069917,0.3931937378126362
436.71237676973396,0.40484677591712354
439.5098795071426,0.4165045892921655
442.3402192674366,0.4284312082411404
445.1360074021177,0.44032408370017206
447.930943955329,0.45230402837629713
450.75868780728706,0.4644938836583899
453.5519121161087,0.47657840637791116
456.3779238904244,0.48882109454274364
459.1694375278166,0.500900948725432
461.99371881542174,0.5130768146063311
464.7835233524238,0.5250249188236904
467.5724790401364,0.5368550204334192
470.39417274803054,0.5486692670287573
473.18142168360646,0.5601468945096157
476.00138886887726,0.5715228874914586
478.7869326185464,0.5824842874040492
481.60517486533354,0.5932515731774621
484.3890149934232,0.6035249156929725
487.17200899273666,0.6133913621638799
489.9876719528438,0.6229185848730552
492.76896466880135,0.6318371696094757
495.5829066375736,0.640319949589322
498.3624996297294,0.6481251726381458
501.14124842855017,0.6553197956440043
503.9526170105346,0.6619438204514637
506.7296684166504,0.6678073105028308
509.505876786945,0.6729645229086234
512.3146755106209,0.6774393815617133
515.0891888150436,0.6811043472984979
517.8962728359329,0.6840308899808811
520.6690926264382,0.6861374351645907
523.4410713071484,0.6874565484690653
526.2455913408958,0.6879878416409217
529.0158788274384,0.6877218274271834
531.785326356061,0.6866778528838433
534.5872859139781,0.6848428931684746
537.3550445639485,0.6822792236688894
540.1219644057746,0.6789928862005062
542.9213669927594,0.6749598227495144
545.686600267225,0.670308889747303
548.4509958812232,0.6650329102265511
551.2478449957853,0.6590984652886602
554.0105563494981,0.6526913944773011
556.805701690384,0.6457057843151667
559.5667303225964,0.6383584049297377
562.3269232040038,0.6306211799056779
565.0862807140293,0.6225481400875699
567.8780333537688,0.6140925503473496
570.6357112050464,0.6055125954451164
573.3925548263542,0.5967659305523869
576.1817644509756,0.5878021511913222
578.9369307080196,0.5788915513915962
581.6912638744288,0.5699834134794817
584.4779339570123,0.5610258567357697
587.2305920494691,0.5522852584708361
589.9824181885451,0.5437051274565954
592.7665521958479,0.5352343838897902
595.5167055471175,0.5271209065702348
598.2660280801974,0.5193053925188983
601.0145201715131,0.5118276872869254
603.7952814999189,0.5046412357898337
606.5421038421155,0.4979506590549165
609.2880968749887,0.4916977013402688
612.0663301881068,0.48584151906168555
614.8106557483188,0.48054401999452623
617.554153129593,0.47575111219980654
620.2968227067649,0.4714774777877431
623.0716940541533,0.46769217718182104
625.8126991844802,0.4644925191381616
628.552877638358,0.46183359463907
631.2922297897167,0.45971510741832383
634.0637452701958,0.4581173597641786
636.8014359932095,0.4570709203223434
639.5383015386324,0.45654274013020435
642.3073015987065,0.456521459604504
645.0425079771339,0.45699017839155215
647.7768903008473,0.45792539221864464
650.5104489421938,0.4593040155076932
653.2431842732913,0.46110028821670634
656.0080062575216,0.46331453640120684
658.7390861754284,0.46586314916253296
661.4693439025905,0.46873749432696254
664.1987798102273,0.47190296388139374
666.9602641357596,0.4753658797392593
669.6880476268889,0.4790056711456516
672.4150104152941,0.48282315910850865
675.141152871307,0.48677846082117043
677.8993055782594,0.4908802795326822
680.6237986072192,0.49498960977189704
683.3474724178923,0.4991137671138339
686.0703273797008,0.503211967049394
688.7923638618704,0.5072439758471163
691.5463630106569,0.5112169498818021
694.2667537902307,0.5149977985146212
696.9863272009134,0.5185980178629649
699.705083611032,0.5219830443032059
702.4230233886883,0.5251206435085878
705.1728783546314,0.5280139641540607
707.8891761429404,0.5305674739190366
710.6046584062024,0.5327945266123603
713.3193255116239,0.5346762901596678
716.033177826208,0.5361983911093989
718.7462157167283,0.5373514342661694
721.491111983778,0.5381387153031005
724.2025123243511,0.5385439555443552
726.9130993442814,0.5385882936939403
729.6228734094693,0.5382892400458451
732.3318348855792,0.5376734488888214
735.0399841380749,0.5367780966812492
737.7799351068679,0.5356377593198403
740.4864512328204,0.5343434806949737
743.1921562345997,0.5329618771631747
745.8970504767931,0.531588678064707
748.6011343237551,0.5303365442431471
751.3044081396256,0.5293331383082645
754.0394271625555,0.5287114697114841
756.741072259374,0.5286255083006188
759.4419084205874,0.5291883734201259
762.1419360094733,0.5304887132095796
764.8411553890837,0.5325574195870061
767.539566922238,0.535344499294003
770.2371709715626,0.5387014217909152
772.9339678994475,0.5423752333054038
775.6624349602753,0.5460622061173493
778.3576090181923,0.5492635562369337
781.0519770449282,0.5516077176675419
783.7455394020071,0.5527322845726563
786.4382964507422,0.552392797215893
789.1302485522319,0.5505137650673897
791.8213960673565,0.5472145322789519
794.5117393567816,0.5428025304535021
797.2012787809545,0.5377335212366698
799.922404211542,0.5324847700083601
802.6103273114531,0.5277275137845556
805.2974476305062,0.5238630185607323
807.9837655282827,0.5212152263058809
810.6692813641639,0.5199284824223165
813.3539954973021,0.5199569867013979
816.037908286642,0.5210823063170632
818.7210200909067,0.5229539874040127
821.4033312686151,0.5251454959996947
824.0848421780756,0.5272163621652545
826.7655531773598,0.5287713565526574
829.4777478409233,0.5295116750216933
832.1568504666102,0.5292414505841981
834.8351542594137,0.5279349260924506
837.5126595765614,0.5256787847131258
840.1893667750774,0.5226608348193033
842.8652762117599,0.5191335577938255
845.5403882432074,0.5153735749271737
848.2147032257963,0.511643652895927
850.8882215157028,0.5081624728720919
853.5609434688704,0.505085236299517
856.2328694410462,0.5024958377090838
858.9039997877626,0.5004093249271316
861.5743348643446,0.4987820357665729
864.2438750258916,0.49752626050978593
866.9126206273068,0.49652643477123354
869.5805720232747,0.4956544904574287
872.2477295682729,0.494782819555169
874.9140936165568,0.49379411207239987
877.5796645221853,0.49258797227614975
880.2444426389957,0.4910846396482866
882.9084283206321,0.48922635346674154
885.5716219205024,0.4869769517973685
888.2340237918252,0.48432024747919555
890.8956342876045,0.48125762881214285
893.5564537606224,0.47780522878979725
896.2164825634645,0.4739909149275424
898.8757210485091,0.4698512799576402
901.566194253428,0.4653739384221101
904.2238436478765,0.4607115848502104
906.88070378462,0.4558589616480765
909.5047788508018,0.4509221543127781
912.1600710251078,0.44582260154630193
914.8145749914547,0.44065779124293136
917.4682911007549,0.43546063498397714
920.1212197037094,0.4302583055742303
922.7733611508156,0.42507198940461677
925.4247157923564,0.41991693586360923
928.0752839784072,0.4148027619108547
930.725066058847,0.40973396579540344
933.3740623833291,0.40471060258782565
936.0222733013143,0.3997290756242822
938.669699162052,0.3947830019666256
941.3163403145809,0.38986411639533125
943.9621971077358,0.38496318722105444
946.607269890148,0.38007092856787583
949.2515590102339,0.3751789085708704
951.8950648162136,0.37028047306107253
954.5377876560888,0.3653717337936516
957.1797278776648,0.3604527172786394
959.8208858285398,0.35552885164283554
962.4612618561077,0.35061312062035077
965.1008563075484,0.3457295162006184
967.7396695298376,0.34091906578563586
970.3777018697583,0.336251181450764
973.0149536738754,0.33184669624931545
975.65142528855,0.32792839323448264
978.2871170599428,0.3249387444362431
980.8902880408277,0.32380053586630286
983.5244305486303,0.3262802816558733
986.1577942462391,0.3349012871655742
988.7903794789963,0.3498834969970861
991.4221865920408,0.36391087613762235
994.0532159303111,0.3641629734194611
996.6834678385349,0.3460335491386802
999.3129426612431,0.31917392946418427
1001.9416407427561,0.29540484879970497
1004.5695624271975,0.2786044972502908
1007.1967080584836,0.2670739666427602
1009.8230779803271,0.2584769870475027
1012.4170434801454,0.25150531761754513
1015.041872349022,0.24532775868822904
1017.665926534246,0.23971847610132108
1020.2892063787294,0.2345172109458508
1022.9117122251773,0.22963769854511729
1025.5334444160871,0.22503082476961447
1028.15440329376,0.22066729648272726
1030.7745892002931,0.2165288852141712
1033.3940024775802,0.21260372802390573
1035.9810981708106,0.20892730534069465
1038.598976513018,0.20540402801591173
1041.2160832463414,0.20207521370451914
1043.832418711885,0.19893680540042444
1046.447983250535,0.1959850784172597
1049.0627772029802,0.1932164282362846
1051.676800909714,0.19062724597391578
1054.290054711022,0.1882138505848382
1056.8710678120515,0.18599845441884538
1059.48279208834,0.18392316964462907
1062.093747474777,0.18201204924054232
1064.7039343108554,0.18026101865995942
1067.313352935871,0.1786659459846351
1069.9220036889128,0.17722266936283032
1072.4984711957586,0.1759417733229421
1075.105596462614,0.17478792085059236
1077.7119548694973,0.1737735295351051
1080.317546754708,0.17289459292731726
1082.9223724563308,0.17214720500703318
1085.5264323122756,0.17152758025768267
1088.1297266602414,0.17103207116082741
1090.700904617097,0.17066099527152556
1093.3026781742628,0.17040200505739594
1095.90368723129,0.17025718986816796
1098.5039321250988,0.17022357711156855
1101.1034131923952,0.17029838345999748
1103.6708254619662,0.17047622246969982
1106.2687890782108,0.17075906056535925
1108.8659898728438,0.1711431624959946
1111.4624281817887,0.17162652630987485
1114.0581043407765,0.17220734622114175
1116.6217591897112,0.1728752935579868
1119.2159212276165,0.1736452531792498
1121.8093221175222,0.17450842070953826
1124.4019621943662,0.17546374849333907
1126.9938417929043,0.1765103706127686
1129.5537474636767,0.17763336043488978
1132.1441162613737,0.17885959798142614
1134.7337255797866,0.18017558675984166
1137.322575752878,0.18158114678277498
1139.9106671144218,0.18307626043332664
1142.466831825419,0.1846414399263932
1145.0534156966605,0.18631515292314868
1147.6392417524658,0.1880792993209587
1150.2243103258224,0.18993447492268356
1152.7774899721844,0.19185741514723875
1155.3610536951164,0.19389589720571593
1157.9438609293902,0.19602805081890978
1160.5259120072114,0.1982550412478804
1163.1072072606003,0.200578171393645
1165.6566606759006,0.20296912817969903
1168.2364543720396,0.20548778451694538
1170.8154932346333,0.2081072782704722
1173.3937775949307,0.21082944664694955
1175.940257690534,0.21362156900185575
1178.5170431196166,0.21655382239957352
1181.0930750349762,0.21959501678114932
1183.6683537670833,0.22274750613284522
1186.2118657414467,0.22597373165194523
1188.7856481622657,0.2293549619595521
1191.3586783861065,0.23285527343789353
1193.9309567426717,0.2364775194415601
1196.471505782134,0.24017877270669025
1199.0422904412299,0.2440523697983051
1201.6123242170252,0.24805714075372035
1204.1506566845674,0.25214572318325223
1206.7191987172919,0.2564212352787859
1209.2869908489847,0.26083816848583796
1211.8540334080099,0.2654001577523918
1214.389411983815,0.2700532744430293
1216.9549654029506,0.2749147843093929
1219.5197702293917,0.2799327354727408
1222.0529389950316,0.28504772433481673
1224.61625662804,0.290388477765001
1227.1788266466283,0.29589764437844457
1229.7406493778217,0.3015793026622133
1232.2708732581305,0.30736589124957847
1234.8312113884967,0.31340258082795946
1237.3908032074723,0.3196239161120287
1239.9188240118929,0.32595551205339157
1242.4769331685857,0.33255565281842064
1245.0342969881858,0.3393520429219006
1247.560117592806,0.3462628071699891
1250.116000685306,0.35345989460119287
1252.6711394133126,0.36086343229110374
1255.194762689218,0.36838335353705803
1257.7484226219312,0.376205626203616
1260.3013391610693,0.38424200697635635
1262.822767974354,0.39239353234121915
1265.3742076466478,0.4008602544514043
1267.924904894593,0.40954474519624107
1270.4441421063602,0.4183384892803248
1272.993364412563,0.4274553017366242
1275.5418452619597,0.436787798209257
1278.0588937283464,0.4462173944054047
1280.6059015577484,0.45597086783467494
1283.1521688962057,0.4659302566937811
1285.6670314683906,0.475966658277526
1288.2118277052796,0.48631846886949676
1290.755884415401,0.49685683929122465
1293.2685639396113,0.5074427434946518
1295.811151463251,0.5183243006484258
1298.3530004226377,0.5293619913555299
1300.8634997401532,0.5404075185216695
1303.403881424827,0.5517163488520634
1305.9129317732186,0.5630010452777888
1308.4518474532706,0.5745204830125493
1310.9900261682633,0.5861200639675659
1313.4969010306886,0.5976403646575263
1316.0336156473168,0.6093430681712979
1318.5695942569437,0.6210678315017515
1321.074296461582,0.6326527654242938
1323.6088128757874,0.6443596723045644
1326.112071126503,0.6558859863101448
1328.6451266095319,0.6674922282875931
1331.1774476773753,0.6790171846848021
1333.6785379692556,0.6903042390635228
1336.209400003383,0.7016101723658112
1338.7090494631484,0.7126454866678107
1341.2384537241596,0.7236633611669523
1343.76712515721,0.7345137737068587
1346.2646113435585,0.7450563837639539
1348.7918268954818,0.7555372791414171
1351.2878753625337,0.7656947502697803
1353.8136362903097,0.7757689306356536
1356.338665972784,0.7856286430443902
1358.832555838333,0.7951544222413424
1361.3561327831994,0.8045752185617737
1363.8485880333137,0.8136616015972115
1366.3707134939323,0.8226333292506576
1368.8921092873425,0.8313766004662456
1371.3824105944368,0.8397884578461529
1373.9023567847216,0.8480717912593939
1376.3912265713043,0.8560238615435071
1378.9097244082113,0.8638341422748332
1381.3971639082774,0.8713084224692391
1383.914214640121,0.8786209611580423
1386.4002250862322,0.8855854987728192
1388.9158299598967,0.8923593258241267
1391.4307079939972,0.8988406976853243
1393.9145728441363,0.9049394601416596
1396.4280068914595,0.9107843849186535
1398.9104457665926,0.9162127285028
1401.422437070447,0.9213325900804327
1403.9034511981918,0.9259950019979091
1406.4140010004412,0.9302863596782567
1408.893591607004,0.9340755588664214
1411.4027011481012,0.9374265862306184
1413.8808694582804,0.9402310207632381
1416.388539977259,0.9425300754140041
1418.8954870924463,0.9442605226063204
1421.3715199489052,0.9453886531562229
1423.877029901585,0.9459214625429531
1426.3516435212223,0.9458292984181579
1428.8557175468777,0.9450967843106489
1431.3289131495767,0.9437329928232349
1433.8315524822574,0.9417007175274166
1436.3033312865118,0.939050007360589
1438.8045371588632,0.9357225038823649
1441.2749003817698,0.9318097394189607
1443.7746740250223,0.9272329958914284
1446.2436228822844,0.9221239302331262
1448.7419655262602,0.916384388177959
1451.2095012321843,0.9101830090272058
1453.7064141053015,0.903403307608986
1456.1725378728079,0.8962462446748058
1458.6680222020732,0.8885783599009733
1461.1327352426997,0.8806271518715352
1463.6267922537227,0.8722438548266649
1466.090095777603,0.8636760585998824
1468.582726694589,0.8547617116939787
1471.044621910496,0.8457618414567977
1473.5358279562424,0.8365034740151398
1475.996316071556,0.8272546107901749
1478.4860984674815,0.8178340099485533
1480.9451806882025,0.8085106792977794
1483.4335406543069,0.7990979622021647
1485.8912181850574,0.7898606026539445
1488.3781569399653,0.780609462856951
1490.8344309839958,0.7716005544565847
1493.2900079848114,0.7627519484174612
1495.7748215041174,0.7539868707231175
1498.2289968168734,0.7455417011683358
1500.7123921617567,0.737233309274275
1503.1651669862695,0.7292817093535496
1505.647145370498,0.7215104182540641
1508.0985209052233,0.7141212911434375
1510.579083541168,0.7069463737670993
1513.02906098319,0.7001681692771032
1515.5082090818432,0.693628696980644
1517.9567896268818,0.687490436463329
1520.4046764008053,0.6816752821370079
1522.8817092402714,0.6761187187229492
1525.3282009046197,0.6709529735374604
1527.803822224585,0.6660482470144624
1530.2489199716838,0.661516951460565
1532.7231309783128,0.6572406841553148
1535.16683599912,0.6533127906711941
1537.6098493197496,0.6496684309185531
1540.0819513813403,0.6462547581658675
1542.5235737559778,0.6431387748737459
1544.994268510025,0.6402271847718523
1547.4345011262485,0.6375714183926378
1549.8740435159852,0.6351148155238399
1552.3426338181598,0.6328088772749066
1554.7807882247253,0.6306857716558001
1557.2479742165997,0.6286685576879584
1559.6847418242032,0.6267798636573274
1562.1505247037494,0.6249461353625927
1564.5859066952507,0.6231836226125285
1567.0206005171167,0.6214414898052035
