Raman Shift (cm-1),Fitted Intensity
159.26151312198635,0.006872557614971584
162.17892251266312,0.006953952539258584
165.06070388440276,0.007036139157508636
167.97629817665074,0.007121158705164078
170.89098012548493,0.007208096118891446
173.77006778237046,0.007295948297392039
176.68293717714914,0.007386902187866602
179.59489550712533,0.007479985490371948
182.50594319967058,0.007575276139920031
185.38144153980102,0.0076716805784990605
188.29068006676243,0.007771607058778083
191.19900923170644,0.00787399845999513
194.07182265961455,0.007977685315536017
196.97834519226308,0.008085265626610272
199.8839596359394,0.008195611570619711
202.75409191031576,0.008307469748681516
205.65790225025557,0.008423652522179668
208.5608057718964,0.008542954438094833
211.42826064439942,0.008664029028242239
214.32936258615155,0.008789932299928133
217.22955897789507,0.008919373438847824
220.09434019320543,0.009050902483429952
222.9927375242005,0.00918785425313115
225.89023057112718,0.009328843978241522
228.75234186693342,0.009472306298872114
231.64803836756255,0.009621897501764478
234.54283184768065,0.009776129373373507
237.4022769547155,0.009933307562236645
240.2952763983085,0.010097462143515916
243.18737408261222,0.010266991108785772
246.04415672466348,0.010440055628421527
248.93446287752522,0.010621124548801656
251.82386852998388,0.010808471005985507
254.67799242389083,0.011000094144507606
257.565609045334,0.011200983422260512
260.41796602711474,0.011406750842174655
263.3037952786035,0.011622788509813478
266.18872612093764,0.011847136524464475
269.0384305290536,0.012077479570443474
271.9215764941182,0.012319921499445005
274.8038253026716,0.01257234890036064
277.65088083558294,0.012832227970833054
280.5313472549242,0.013106538376221041
283.37664243438485,0.013389521787682004
286.2553281173605,0.013688858361201492
289.13311872473423,0.014002168679612969
291.97577117291803,0.014326504749672113
294.85178352428557,0.014670833325278734
297.6926797004962,0.015028209658248469
300.5669154435891,0.015408657367500602
303.44025818556474,0.015809561972836957
306.2785177554506,0.016227513656942298
309.150086361853,0.0166745338339955
311.98659372863403,0.017142124583393894
314.85638984211255,0.01764399391175897
317.69114662786524,0.01817088573965453
320.55917188903913,0.018738567694032045
323.42630704161274,0.019344369217866753
326.25843576130865,0.019984229883161023
329.1238025236089,0.020677920166573927
331.9541847135806,0.021413725664234332
334.8177847211591,0.02221483547066567
337.6464219965019,0.023068167334329585
340.5082568828984,0.024001045217119647
343.3351508567066,0.024998608159835543
346.1952222534492,0.02609308661379541
349.0203745368344,0.027267190656364477
351.8786840734356,0.028558800865414437
354.7361080202609,0.02996464022437675
357.55864557949826,0.03147646876402731
360.4143101115624,0.033141643176061136
363.23511000427607,0.03493127612132151
366.08901674608205,0.03689908517762209
368.90808057645336,0.03900789006648722
371.7602311504961,0.041317056587945995
374.57756052071636,0.04377818684562777
377.42795654749716,0.04645475951737797
380.2435530577968,0.049284001086127384
383.0921961558306,0.052331147875942056
385.90606140446107,0.055516247841933423
388.7529531902692,0.058903346821095194
391.56508877352826,0.062393728084870204
394.41023086164205,0.06604717787491471
397.2206383738594,0.06974684537155736
400.0640323768239,0.0735457149754471
402.8727134103756,0.0773125224200738
405.71436093876036,0.08109209202387116
408.5213170840616,0.08474595860975974
411.36121974646085,0.08831105380478649
414.16645259197685,0.09165203567901167
417.00461199500205,0.09479986336625157
419.8081231272481,0.09763445947953595
422.6107791472823,0.10015559627512724
425.446331879084,0.10235534362197952
428.2472685572284,0.10415801634260391
431.0810820327788,0.10559374885235752
433.88030095069917,0.10662636710161028
436.71237676973396,0.10729047055501287
439.5098795071426,0.10759135717635733
442.3402192674366,0.10756900131823574
445.1360074021177,0.10726638555545547
447.930943955329,0.10673610126609727
450.75868780728706,0.10602746837159459
453.5519121161087,0.10522255565046397
456.3779238904244,0.1043727995450701
459.1694375278166,0.10357117391419204
461.99371881542174,0.10287404649616677
464.7835233524238,0.10237324420996154
467.5724790401364,0.10213421524685294
470.39417274803054,0.10223490180846022
473.18142168360646,0.10274806293575267
476.00138886887726,0.1037629421119097
478.7869326185464,0.10533233008672765
481.60517486533354,0.10757447249853307
484.3890149934232,0.11051810325549132
487.17200899273666,0.11427037438204493
489.9876719528438,0.11898005675065298
492.76896466880135,0.12462308016233367
495.5829066375736,0.1314206633984761
498.3624996297294,0.13928363880989994
501.14124842855017,0.14833738920304207
503.9526170105346,0.158730831811703
506.7296684166504,0.1701868477938264
509.505876786945,0.1827311962555559
512.3146755106209,0.1963676976519836
515.0891888150436,0.2105267839924699
517.8962728359329,0.22522121054635919
520.6690926264382,0.23971136653776653
523.4410713071484,0.2537412660509839
526.2455913408958,0.2670200744229382
529.0158788274384,0.2788102558292297
531.785326356061,0.2889210321747411
534.5872859139781,0.2971767086220826
537.3550445639485,0.30323354627789945
540.1219644057746,0.30717971595803295
542.9213669927594,0.3091199414508906
545.686600267225,0.30919816782785464
548.4509958812232,0.3077025626780909
551.2478449957853,0.3048767486530708
554.0105563494981,0.30107304930155265
556.805701690384,0.2964606598021697
559.5667303225964,0.29136024249043346
562.3269232040038,0.2858766366324855
565.0862807140293,0.28011399347031724
567.8780333537688,0.2740592701011672
570.6357112050464,0.2678844227187574
573.3925548263542,0.2615260672450689
576.1817644509756,0.25490340463709227
578.9369307080196,0.24817430763218284
581.6912638744288,0.2412687303365774
584.4779339570123,0.2341193693930728
587.2305920494691,0.22692743969124604
589.9824181885451,0.2196505314501019
592.7665521958479,0.21225124898015138
595.5167055471175,0.20496304884647853
598.2660280801974,0.19775759319018138
601.0145201715131,0.19069450594289516
603.7952814999189,0.18374952821944726
606.5421038421155,0.17714076509594096
609.2880968749887,0.1708300586265439
612.0663301881068,0.16478602099107972
614.8106557483188,0.1591832063318956
617.554153129593,0.15396968159218297
620.2968227067649,0.14915958439313914
623.0716940541533,0.14470904361052112
625.8126991844802,0.14072380453172034
628.552877638358,0.13714217249703553
631.2922297897167,0.13395284217033832
634.0637452701958,0.13110871475171773
636.8014359932095,0.12865865904700188
639.5383015386324,0.12654558695644164
642.3073015987065,0.12472715386547378
645.0425079771339,0.12322315242114498
647.7768903008473,0.12198669777754102
650.5104489421938,0.12099483948574316
653.2431842732913,0.12022553862404961
656.0080062575216,0.11965237689511471
658.7390861754284,0.1192697239817524
661.4693439025905,0.11905241900860215
664.1987798102273,0.1189854398790586
666.9602641357596,0.11905774906425935
669.6880476268889,0.11925737171937474
672.4150104152941,0.11957691826582685
675.141152871307,0.12001181195263397
677.8993055782594,0.12056784775241922
680.6237986072192,0.12123359927476492
683.3474724178923,0.12202037375162036
686.0703273797008,0.122937429165705
688.7923638618704,0.12399830399505549
691.5463630106569,0.1252371126182866
694.2667537902307,0.12664827384549232
696.9863272009134,0.12827526062774117
699.705083611032,0.13015464889347425
702.4230233886883,0.13233073834024717
705.1728783546314,0.134889318757625
707.8891761429404,0.13783278720778844
710.6046584062024,0.14126263203204673
713.3193255116239,0.14526321281274746
716.033177826208,0.14993010864619516
718.7462157167283,0.15536946418799494
721.491111983778,0.16177834804571864
724.2025123243511,0.16912587201394713
726.9130993442814,0.1776035882558307
729.6228734094693,0.18732533874477922
732.3318348855792,0.1983883149240171
735.0399841380749,0.2108612140082708
737.7799351068679,0.22494695788964109
740.4864512328204,0.24027965175633256
743.1921562345997,0.25691727042840123
745.8970504767931,0.2746767231658199
748.6011343237551,0.2932856119054079
751.3044081396256,0.3123812552742167
754.0394271625555,0.33174650350189866
756.741072259374,0.3504018594231079
759.4419084205874,0.3680239241081757
762.1419360094733,0.3840512973655824
764.8411553890837,0.39795720460614825
767.539566922238,0.4092957331175129
770.2371709715626,0.4177514879129535
772.9339678994475,0.42319393590743337
775.6624349602753,0.42575992140366536
778.3576090181923,0.425881986554975
781.0519770449282,0.424711413235492
783.7455394020071,0.42465654428028204
786.4382964507422,0.43162586630922706
789.1302485522319,0.46059620688231234
791.8213960673565,0.5336269708413659
794.5117393567816,0.6241662332165189
797.2012787809545,0.6225647691218893
799.922404211542,0.5095781124416304
802.6103273114531,0.39936372532686404
805.2974476305062,0.3370921043039253
807.9837655282827,0.3043843987891672
810.6692813641639,0.2846641299060521
813.3539954973021,0.2714165781747998
816.037908286642,0.2622227672484866
818.7210200909067,0.2560225066748727
821.4033312686151,0.25224944817786493
824.0848421780756,0.2505399328397682
826.7655531773598,0.2506228696240807
829.4777478409233,0.2523027490214912
832.1568504666102,0.2553401748994976
834.8351542594137,0.25956555332313064
837.5126595765614,0.264809768204192
840.1893667750774,0.27091193830902366
842.8652762117599,0.2777172055119443
845.5403882432074,0.2850751448810931
848.2147032257963,0.2928386745095251
850.8882215157028,0.3008634433336725
853.5609434688704,0.30900770043184655
856.2328694410462,0.31713264256275103
858.9039997877626,0.3251032187434746
861.5743348643446,0.3327893513050449
864.2438750258916,0.3400675165530837
866.9126206273068,0.3468226168337179
869.5805720232747,0.35295007035283776
872.2477295682729,0.3583580461610127
874.9140936165568,0.36296978011527753
877.5796645221853,0.36672592468297455
880.2444426389957,0.369586913356259
882.9084283206321,0.3715353629067705
885.5716219205024,0.3725786001338345
888.2340237918252,0.37275149559843607
890.8956342876045,0.37211993653549147
893.5564537606224,0.3707855177661053
896.2164825634645,0.3688924685175763
898.8757210485091,0.3666387045896068
901.566194253428,0.3642675079265627
904.2238436478765,0.3622198005366066
906.88070378462,0.3610390737373852
909.5047788508018,0.361681179957554
912.1600710251078,0.3662994506273857
914.8145749914547,0.3823588748639844
917.4682911007549,0.47079710753621407
920.1212197037094,0.9670779828467807
922.7733611508156,0.4994191525666628
925.4247157923564,0.4191517648403519
928.0752839784072,0.4212418620009438
930.725066058847,0.43621714969488357
933.3740623833291,0.4550282938084593
936.0222733013143,0.47369184152330746
938.669699162052,0.48899573525304885
941.3163403145809,0.49808646194016015
943.9621971077358,0.4987385380352563
946.607269890148,0.4897204249090311
949.2515590102339,0.47102554854193146
951.8950648162136,0.44385846614666
954.5377876560888,0.41036856533964644
957.1797278776648,0.37321275799751336
959.8208858285398,0.3350801845482143
962.4612618561077,0.2983164106597868
965.1008563075484,0.26477162451552644
967.7396695298376,0.2361323280463546
970.3777018697583,0.21689541795071743
973.0149536738754,0.2317343822519018
975.65142528855,0.2180261319199549
978.2871170599428,0.16162818702947845
980.8902880408277,0.14038265901147784
983.5244305486303,0.12728239676737885
986.1577942462391,0.11714952128144816
988.7903794789963,0.10878889916188118
991.4221865920408,0.10169791327412175
994.0532159303111,0.09558336935328478
996.6834678385349,0.09024748438058261
999.3129426612431,0.08554719889143193
1001.9416407427561,0.08137485278231998
1004.5695624271975,0.0776472191399127
1007.1967080584836,0.07429861650667959
1009.8230779803271,0.07127632174545555
1012.4170434801454,0.06856885679576889
1015.041872349022,0.06607509798391793
1017.665926534246,0.06380011880208791
1020.2892063787294,0.06171903425877404
1022.9117122251773,0.059810730085234826
1025.5334444160871,0.05805715829902394
1028.15440329376,0.05644278989089428
1030.7745892002931,0.05495418412947925
1033.3940024775802,0.0535796457095696
1035.9810981708106,0.05232367710031256
1038.598976513018,0.051146748306792646
1041.2160832463414,0.050056853417415795
1043.832418711885,0.04904697576350343
1046.447983250535,0.048110885392893
1049.0627772029802,0.04724303369995303
1051.676800909714,0.04643846479928187
1054.290054711022,0.04569274058314477
1056.8710678120515,0.04500988869535399
1059.48279208834,0.044369703642703553
1062.093747474777,0.04377760080363699
1064.7039343108554,0.04323065847145455
1067.313352935871,0.042726233688111764
1069.9220036889128,0.04226193215612631
1072.4984711957586,0.0418405009166775
1075.105596462614,0.04144970767464003
1077.7119548694973,0.04109312191846811
1080.317546754708,0.04076911155030201
1082.9223724563308,0.040476191432513436
1085.5264323122756,0.04021300978918843
1088.1297266602414,0.03997833619209898
1090.700904617097,0.03977338944740755
1093.3026781742628,0.039592162045667983
1095.90368723129,0.03943638961170705
1098.5039321250988,0.03930523103621014
1101.1034131923952,0.03919792406026666
1103.6708254619662,0.039114657785903985
1106.2687890782108,0.03905278540430386
1108.8659898728438,0.03901290093712802
1111.4624281817887,0.03899450333677032
1114.0581043407765,0.03899714635459593
1116.6217591897112,0.03902003306638177
1119.2159212276165,0.039063378300990784
1121.8093221175222,0.03912672502557562
1124.4019621943662,0.039209814760838645
1126.9938417929043,0.03931242989710586
1129.5537474636767,0.03943280773337497
1132.1441162613737,0.03957374387191513
1134.7337255797866,0.0397337799424322
1137.322575752878,0.03991284343209892
1139.9106671144218,0.04011089461036129
1142.466831825419,0.040325197535391114
1145.0534156966605,0.040561001213717286
1147.6392417524658,0.04081585839190899
1150.2243103258224,0.04108984979975418
1152.7774899721844,0.04137943633433721
1155.3610536951164,0.041691815928666213
1157.9438609293902,0.042023736161949966
1160.5259120072114,0.042375386376221125
1163.1072072606003,0.04274698181252355
1165.6566606759006,0.043133921749222134
1168.2364543720396,0.04354590667197111
1170.8154932346333,0.04397862998448619
1173.3937775949307,0.04443240603672062
1175.940257690534,0.04490171944203841
1178.5170431196166,0.04539837482052082
1181.0930750349762,0.045917162888401
1183.6683537670833,0.04645849076949868
1186.2118657414467,0.047015850494440535
1188.7856481622657,0.04760328237270348
1191.3586783861065,0.04821460005951117
1193.9309567426717,0.04885029526741102
1196.471505782134,0.04950277005906555
1199.0422904412299,0.05018846257444973
1201.6123242170252,0.050900113410805345
1204.1506566845674,0.05162923155626257
1206.7191987172919,0.052394171861132044
1209.2869908489847,0.05318679366453944
1211.8540334080099,0.05400769816103297
1214.389411983815,0.05484708251787258
1216.9549654029506,0.05572602979643034
1219.5197702293917,0.05663509891026611
1222.0529389950316,0.05756340196780276
1224.61625662804,0.058534191853001016
1227.1788266466283,0.059536944813226876
1229.7406493778217,0.060572260111136964
1232.2708732581305,0.06162764827066163
1234.8312113884967,0.0627294064597875
1237.3908032074723,0.06386539924089508
1239.9188240118929,0.06502181339838402
1242.4769331685857,0.06622730954383624
1245.0342969881858,0.06746840727355342
1247.560117592806,0.06872986088195143
1250.116000685306,0.07004272588145034
1252.6711394133126,0.0713920537924646
1255.194762689218,0.07276106320304138
1257.7484226219312,0.07418318621352632
1260.3013391610693,0.07564188781313702
1262.822767974354,0.07711876541919646
1265.3742076466478,0.07864954723556021
1267.924904894593,0.0802160129213027
1270.4441421063602,0.08179808907150371
1272.993364412563,0.0834336488686739
1275.5418452619597,0.08510272978251018
1278.0588937283464,0.08678359800325293
1280.6059015577484,0.08851604899858342
1283.1521688962057,0.09027839250573265
1285.6670314683906,0.09204733342295476
1288.2118277052796,0.09386430499154878
1290.755884415401,0.09570600796095326
1293.2685639396113,0.09754780108912356
1295.811151463251,0.09943243012182293
1298.3530004226377,0.1013352377831086
1300.8634997401532,0.10323058334099175
1303.403881424827,0.10516218718059556
1305.9129317732186,0.10708097254877022
1308.4518474532706,0.10903112668923526
1310.9900261682633,0.11098665926172491
1313.4969010306886,0.11292134043195153
1316.0336156473168,0.11487980288056182
1318.5695942569437,0.11683596253080751
1321.074296461582,0.11876394940790326
1323.6088128757874,0.12070854444790968
1326.112071126503,0.12262082782803722
1328.6451266095319,0.12454550588861052
1331.1774476773753,0.12645741495353002
1333.6785379692556,0.1283321704431467
1336.209400003383,0.13021405918774365
1338.7090494631484,0.13205645895614776
1341.2384537241596,0.13390312778418018
1343.76712515721,0.13573038717571967
1346.2646113435585,0.1375155357617984
1348.7918268954818,0.13930106460368602
1351.2878753625337,0.14104286561813992
1353.8136362903097,0.14278221499250326
1356.338665972784,0.1444963508894298
1358.832555838333,0.1461635095027492
1361.3561327831994,0.14782249977601278
1363.8485880333137,0.14943121178852506
1366.3707134939323,0.15102635720258167
1368.8921092873425,0.15258518429278375
1371.3824105944368,0.15408628169617902
1373.9023567847216,0.15556251713451766
1376.3912265713043,0.156974225625943
1378.9097244082113,0.15835128191822856
1381.3971639082774,0.15965566070350068
1383.914214640121,0.16091393629316345
1386.4002250862322,0.16209038102086656
1388.9158299598967,0.1632080120642511
1391.4307079939972,0.1642462342994391
1393.9145728441363,0.16518827324159116
1396.4280068914595,0.16605145318121756
1398.9104457665926,0.16680963371372035
1401.422437070447,0.1674762186824135
1403.9034511981918,0.16803058574938992
1406.4140010004412,0.16848218671729115
1408.893591607004,0.16881679342681397
1411.4027011481012,0.16903992843135598
1413.8808694582804,0.16914444737580708
1416.388539977259,0.1691320096490423
1418.8954870924463,0.16900069051361125
1421.3715199489052,0.1687552455293684
1423.877029901585,0.16839172458177562
1426.3516435212223,0.1679218494419971
1428.8557175468777,0.16733811190220188
1431.3289131495767,0.16665934368252475
1433.8315524822574,0.16587465740513227
1436.3033312865118,0.1650092705765989
1438.8045371588632,0.16404914114077823
1441.2749003817698,0.16302490089379068
1443.7746740250223,0.16191963524909941
1446.2436228822844,0.1607682511369904
1448.7419655262602,0.1595513104895061
1451.2095012321843,0.15830677360132595
1453.7064141053015,0.15701309773165942
1456.1725378728079,0.15571007114297641
1458.6680222020732,0.15437452965634862
1461.1327352426997,0.15304692520956695
1463.6267922537227,0.15170300655332647
1466.090095777603,0.15038283241783443
1468.582726694589,0.14906163063857183
1471.044621910496,0.14777814470819206
1473.5358279562424,0.14650765691169726
1475.996316071556,0.14528681920255893
1478.4860984674815,0.14409152999110308
1480.9451806882025,0.14295571722048972
1483.4335406543069,0.14185642256905967
1485.8912181850574,0.14082435086470635
1488.3781569399653,0.13983816238803962
1490.8344309839958,0.1389249579443517
1493.2900079848114,0.1380753841051328
1495.7748215041174,0.1372827864371208
1498.2289968168734,0.13656837534056201
1500.7123921617567,0.13591648202055498
1503.1651669862695,0.13534417020661346
1505.647145370498,0.13483849092419306
1508.0985209052233,0.134412269956992
1510.579083541168,0.1340554113928831
1513.02906098319,0.13377646843922042
1515.5082090818432,0.1335682479205919
1517.9567896268818,0.1334350470807751
1520.4046764008053,0.13337286734010811
1522.8817092402714,0.13338084020804533
1525.3282009046197,0.13345703146891047
1527.803822224585,0.13360117137841274
1530.2489199716838,0.1338073333465591
1532.7231309783128,0.13407767861339787
1535.16683599912,0.13440249510820163
1537.6098493197496,0.13478113000434178
1540.0819513813403,0.13521516569887992
1542.5235737559778,0.13568976967742896
1544.994268510025,0.13621166144684393
1547.4345011262485,0.13676308064825146
