Raman Shift (cm-1),Fitted Intensity
159.26151312198635,0.010979436237036863
162.17892251266312,0.011111721288965957
165.06070388440276,0.011245293143712705
167.97629817665074,0.011383467932942638
170.89098012548493,0.01152475697367476
173.77006778237046,0.011667528475848434
176.68293717714914,0.01181533471812166
179.59489550712533,0.01196659354837561
182.50594319967058,0.012121429410054342
185.38144153980102,0.012278063213885915
188.29068006676243,0.012440405168974628
191.19900923170644,0.012606734731990907
194.07182265961455,0.012775149367671802
196.97834519226308,0.012949865495512625
199.8839596359394,0.0131290473307858
202.75409191031576,0.0133106560166999
205.65790225025557,0.013499253174082244
208.5608057718964,0.013692876601776382
211.42826064439942,0.013889336491199661
214.32936258615155,0.014093585937771264
217.22955897789507,0.0143035238755104
220.09434019320543,0.014516792891595636
222.9927375242005,0.014738792977938248
225.89023057112718,0.014967270390111352
228.75234186693342,0.015199681140523768
231.64803836756255,0.015441939178856376
234.54283184768065,0.015691622862154496
237.4022769547155,0.015945980027159985
240.2952763983085,0.016211520659149582
243.18737408261222,0.01648563865404373
246.04415672466348,0.01676534914180954
248.93446287752522,0.017057859896671964
251.82386852998388,0.01736036271504641
254.67799242389083,0.01766961233220989
257.565609045334,0.017993642288758258
260.41796602711474,0.018325355071373183
263.3037952786035,0.018673421559917407
266.18872612093764,0.019034657234114696
269.0384305290536,0.01940531323550377
271.9215764941182,0.019795184891471092
274.8038253026716,0.020200840571977928
277.65088083558294,0.02061818302779987
280.5313472549242,0.02105838860084546
283.37664243438485,0.02151218268153423
286.2553281173605,0.021991844888845945
289.13311872473423,0.022493517789892923
291.97577117291803,0.023012447837581756
294.85178352428557,0.023562939664729943
297.6926797004962,0.024133847519732132
300.5669154435891,0.02474113906409854
303.44025818556474,0.02538058630879364
306.2785177554506,0.026046712235649208
309.150086361853,0.026758628254105143
311.98659372863403,0.027502752550843636
314.85638984211255,0.028300850128699505
317.69114662786524,0.029138150854982996
320.55917188903913,0.030039657357265
323.42630704161274,0.0310010588235107
326.25843576130865,0.03201585530784766
329.1238025236089,0.03311532055444009
331.9541847135806,0.03428078593939642
334.8177847211591,0.035548844481418165
337.6464219965019,0.03689860555147927
340.5082568828984,0.0383730330103341
343.3351508567066,0.03994829169090809
346.1952222534492,0.04167479338572464
349.0203745368344,0.043524618729197086
351.8786840734356,0.04555657300651937
354.7361080202609,0.04776429035514205
357.55864557949826,0.05013342026422535
360.4143101115624,0.05273627505129805
363.23511000427607,0.05552536849464107
366.08901674608205,0.058581514198633534
368.90808057645336,0.061843531564649015
371.7602311504961,0.06539912983082721
374.57756052071636,0.06916909363023538
377.42795654749716,0.07324525124562495
380.2435530577968,0.07752609438745205
383.0921961558306,0.08210381006340972
385.90606140446107,0.0868514871939276
388.7529531902692,0.09185746714867676
391.56508877352826,0.09696884178654035
394.41023086164205,0.10226630663726714
397.2206383738594,0.10757423746044403
400.0640323768239,0.11296325479814731
402.8727134103756,0.11824305971159439
405.71436093876036,0.12347391865381346
408.5213170840616,0.12846357914015333
411.36121974646085,0.13326409450478582
414.16645259197685,0.13769730131020075
417.00461199500205,0.14181117176776406
419.8081231272481,0.14545842200804662
422.6107791472823,0.14865239831208277
425.446331879084,0.1513977662113385
428.2472685572284,0.1536184813761936
431.0810820327788,0.15537311062551343
433.88030095069917,0.15664087485786785
436.71237676973396,0.15748965449247768
439.5098795071426,0.157950829648594
442.3402192674366,0.15810155852256624
445.1360074021177,0.15801479507653152
447.930943955329,0.15777912657588586
450.75868780728706,0.15748310030961518
453.5519121161087,0.15723148792051822
456.3779238904244,0.15712017728913452
459.1694375278166,0.15725287532544427
461.99371881542174,0.1577346294274395
464.7835233524238,0.15865225203467226
467.5724790401364,0.1601038754505059
470.39417274803054,0.16221038089329037
473.18142168360646,0.16501112098760182
476.00138886887726,0.16866149637768355
478.7869326185464,0.1731582258430553
481.60517486533354,0.17869160859436395
484.3890149934232,0.18520704546877254
487.17200899273666,0.192836220112876
489.9876719528438,0.20175794647682993
492.76896466880135,0.21181611693689198
495.5829066375736,0.2232964153658137
498.3624996297294,0.23594930098593273
501.14124842855017,0.24990257565249824
503.9526170105346,0.2653149146475801
506.7296684166504,0.281748396846701
509.505876786945,0.2992643990755666
512.3146755106209,0.3179261986673425
515.0891888150436,0.3370714070587668
517.8962728359329,0.35688602812267983
520.6690926264382,0.37657786577567287
523.4410713071484,0.3960219627590929
526.2455913408958,0.41505041850239127
529.0158788274384,0.4328018065664313
531.785326356061,0.4491054933094485
534.5872859139781,0.46374333257705225
537.3550445639485,0.4760250985447862
540.1219644057746,0.48585842791548345
542.9213669927594,0.49310940854114105
545.686600267225,0.4974864437906286
548.4509958812232,0.49906568282810315
551.2478449957853,0.49788082794546845
554.0105563494981,0.494109840358435
556.805701690384,0.4878890474901337
559.5667303225964,0.47964851922310725
562.3269232040038,0.4696470098782268
565.0862807140293,0.4582247632818473
567.8780333537688,0.4455695401071935
570.6357112050464,0.4323168304527361
573.3925548263542,0.4186268635182644
576.1817644509756,0.4046027090223816
578.9369307080196,0.39080963839861166
581.6912638744288,0.3772670137748282
584.4779339570123,0.3639629433887061
587.2305920494691,0.3513196778344581
589.9824181885451,0.3392462522096033
592.7665521958479,0.32764995178883244
595.5167055471175,0.3168259606635693
598.2660280801974,0.30663444193213146
601.0145201715131,0.2970656038076564
603.7952814999189,0.28799775593483123
606.5421038421155,0.2796250886172198
609.2880968749887,0.271812822655665
612.0663301881068,0.2644531935643072
614.8106557483188,0.2576988200879416
617.554153129593,0.25143787704612974
620.2968227067649,0.2456507741711027
623.0716940541533,0.24025765714867597
625.8126991844802,0.23536940871040155
628.552877638358,0.23090239310470098
631.2922297897167,0.22684017681805796
634.0637452701958,0.22312438014064548
636.8014359932095,0.2198267097345793
639.5383015386324,0.21688373813533277
642.3073015987065,0.21424887079861446
645.0425079771339,0.21196723859979524
647.7768903008473,0.20998795101139348
650.5104489421938,0.20829359023113614
653.2431842732913,0.2068671006950378
656.0080062575216,0.205679396462744
658.7390861754284,0.20474319521714845
661.4693439025905,0.2040288174270626
664.1987798102273,0.20352391900445987
666.9602641357596,0.20321575856607016
669.6880476268889,0.20310388811330682
672.4150104152941,0.20317871675318133
675.141152871307,0.20343891351018528
677.8993055782594,0.20389362050400223
680.6237986072192,0.20453913030425402
683.3474724178923,0.2053918451822621
686.0703273797008,0.20646963052301706
688.7923638618704,0.20779685875827575
691.5463630106569,0.2094265399583813
694.2667537902307,0.21136048874023694
696.9863272009134,0.21366614548019142
699.705083611032,0.21640411474279855
702.4230233886883,0.21964714196888027
705.1728783546314,0.223531680237292
707.8891761429404,0.2280673942844953
710.6046584062024,0.23341382097366767
713.3193255116239,0.239704337109594
716.033177826208,0.24708832684403065
718.7462157167283,0.2557296207760297
721.491111983778,0.2659340678430438
724.2025123243511,0.27764125152878166
726.9130993442814,0.29114188624422294
729.6228734094693,0.30660054242190415
732.3318348855792,0.3241539124155221
735.0399841380749,0.3438937748096649
737.7799351068679,0.3661257406099408
740.4864512328204,0.3902630583560919
743.1921562345997,0.4163965102100326
745.8970504767931,0.4442467071781509
748.6011343237551,0.4734056773040911
751.3044081396256,0.5033355701892249
754.0394271625555,0.5337376963699704
756.741072259374,0.5631229541242551
759.4419084205874,0.5910319054308858
762.1419360094733,0.6166249082134928
764.8411553890837,0.6391016383583882
767.539566922238,0.6577660373434839
770.2371709715626,0.6720982577779039
772.9339678994475,0.6818364850581593
775.6624349602753,0.6871203806353677
778.3576090181923,0.6884748315164952
781.0519770449282,0.6875610017921505
783.7455394020071,0.6879312508614902
786.4382964507422,0.6984819304674778
789.1302485522319,0.7423923545543498
791.8213960673565,0.8560888612346881
794.5117393567816,1.0015792114842148
797.2012787809545,1.0013182381234726
799.922404211542,0.8195390186783006
802.6103273114531,0.6420168922998403
805.2974476305062,0.5416682836461385
807.9837655282827,0.48813125329521745
810.6692813641639,0.45504751651186304
813.3539954973021,0.43235283753378756
816.037908286642,0.4164254697213449
818.7210200909067,0.40574088853083623
821.4033312686151,0.39951325541403826
824.0848421780756,0.397236521821462
826.7655531773598,0.39850882979741814
829.4777478409233,0.40302998726853023
832.1568504666102,0.41031367909088434
834.8351542594137,0.42000168486941697
837.5126595765614,0.43167521313405777
840.1893667750774,0.444889316406794
842.8652762117599,0.4591760122910763
845.5403882432074,0.4740511560626146
848.2147032257963,0.4890248805049717
850.8882215157028,0.5036153157585254
853.5609434688704,0.5173650575086944
856.2328694410462,0.5298595703716272
858.9039997877626,0.5407464634548851
861.5743348643446,0.5497544007617053
864.2438750258916,0.5567103324822974
866.9126206273068,0.5615537549439976
869.5805720232747,0.5643468077704289
872.2477295682729,0.5652791621341081
874.9140936165568,0.5646668035146639
877.5796645221853,0.5629439337753942
880.2444426389957,0.5606473030834713
882.9084283206321,0.558392365005689
885.5716219205024,0.5568408094339771
888.2340237918252,0.5566593916172733
890.8956342876045,0.5584706807089048
893.5564537606224,0.5627975035870039
896.2164825634645,0.5700044677681614
898.8757210485091,0.5802418616801613
901.566194253428,0.5935741004194425
904.2238436478765,0.6092780446489501
906.88070378462,0.6268012191858671
909.5047788508018,0.6449697598435107
912.1600710251078,0.6631025157514687
914.8145749914547,0.6797721361337093
917.4682911007549,0.6938433449433523
920.1212197037094,0.7044317947480697
922.7733611508156,0.7111024924178743
925.4247157923564,0.7140784795434736
928.0752839784072,0.7144348326956265
930.725066058847,0.7142086273289926
933.3740623833291,0.7162676861176267
936.0222733013143,0.7236886566058391
938.669699162052,0.7384417247587485
941.3163403145809,0.7595621159401421
943.9621971077358,0.7816932886757869
946.607269890148,0.7953850448737992
949.2515590102339,0.7899920237853764
951.8950648162136,0.7582796398594944
954.5377876560888,0.7001529409735123
957.1797278776648,0.623058071058625
959.8208858285398,0.5388450185826811
962.4612618561077,0.45938195129340653
965.1008563075484,0.39403470192588097
967.7396695298376,0.3514200781126152
970.3777018697583,0.3431825704883188
973.0149536738754,0.36468670858609065
975.65142528855,0.3579397290200707
978.2871170599428,0.2914924406580799
980.8902880408277,0.22212189932723772
983.5244305486303,0.18021320014796452
986.1577942462391,0.15684141496804838
988.7903794789963,0.14159422045746609
991.4221865920408,0.13029367284258356
994.0532159303111,0.12131182288150862
996.6834678385349,0.11388466801379171
999.3129426612431,0.1075890758376115
1001.9416407427561,0.1021617266656852
1004.5695624271975,0.09742493456270812
1007.1967080584836,0.09325172152003125
1009.8230779803271,0.08954747990504908
1012.4170434801454,0.08627721676627836
1015.041872349022,0.08330439469772498
1017.665926534246,0.08062506148216714
1020.2892063787294,0.07820164036592678
1022.9117122251773,0.07600309884262083
1025.5334444160871,0.07400352633695939
1028.15440329376,0.07218108408120971
1030.7745892002931,0.07051721377398815
1033.3940024775802,0.0689960307744238
1035.9810981708106,0.0676199056232153
1038.598976513018,0.0663435289213141
1041.2160832463414,0.06517409512387316
1043.832418711885,0.06410255922444565
1046.447983250535,0.06312097571788187
1049.0627772029802,0.06222233849939728
1051.676800909714,0.061400448609133525
1054.290054711022,0.060649804234839885
1056.8710678120515,0.05997337602132666
1059.48279208834,0.05935033750632365
1062.093747474777,0.058785416167916466
1064.7039343108554,0.05827510665438863
1067.313352935871,0.05781626283823037
1069.9220036889128,0.05740605690318078
1072.4984711957586,0.05704606596836896
1075.105596462614,0.056725239238291175
1077.7119548694973,0.056446171349410386
1080.317546754708,0.05620699740540693
1082.9223724563308,0.056006035982006576
1085.5264323122756,0.055841771574574
1088.1297266602414,0.05571283920543952
1090.700904617097,0.055618954900760714
1093.3026781742628,0.05555673624381551
1095.90368723129,0.05552654166727493
1098.5039321250988,0.05552748687760961
1101.1034131923952,0.055558784705505355
1103.6708254619662,0.055618829429424754
1106.2687890782108,0.055708477206100934
1108.8659898728438,0.05582663578079124
1111.4624281817887,0.05597284028996234
1114.0581043407765,0.0561466938085579
1116.6217591897112,0.05634527812570994
1119.2159212276165,0.05657316637401505
1121.8093221175222,0.0568278843721388
1124.4019621943662,0.05710926997981289
1126.9938417929043,0.05741721276260319
1129.5537474636767,0.05774746476461607
1132.1441162613737,0.058108067260253596
1134.7337255797866,0.05849518398014311
1137.322575752878,0.05890889074509961
1139.9106671144218,0.059349306176094734
1142.466831825419,0.059810799897973305
1145.0534156966605,0.06030482637007602
1147.6392417524658,0.06082615974969912
1150.2243103258224,0.06137507878222602
1152.7774899721844,0.06194478326115169
1155.3610536951164,0.06254951903617596
1157.9438609293902,0.063182898162234
1160.5259120072114,0.06384534807484211
1163.1072072606003,0.06453733229366243
1165.6566606759006,0.06525047020618885
1168.2364543720396,0.06600268439971813
1170.8154932346333,0.06678602910210024
1173.3937775949307,0.06760110801984999
1175.940257690534,0.06843815355484183
1178.5170431196166,0.06931824626643213
1181.0930750349762,0.07023207925454032
1183.6683537670833,0.0711803899873338
1186.2118657414467,0.07215188508368864
1188.7856481622657,0.07317105235652621
1191.3586783861065,0.07422708933726503
1193.9309567426717,0.07532085664864054
1196.471505782134,0.07643936649237706
1199.0422904412299,0.0776108058650564
1201.6123242170252,0.07882270915114899
1204.1506566845674,0.0800606889521156
1206.7191987172919,0.0813559140400007
1209.2869908489847,0.08269454051713729
1211.8540334080099,0.0840775853044503
1214.389411983815,0.08548859145656143
1216.9549654029506,0.08696299909839542
1219.5197702293917,0.08848491517359451
1222.0529389950316,0.09003616170691929
1224.61625662804,0.09165559183569122
1227.1788266466283,0.09332559601842103
1229.7406493778217,0.09504716605792438
1232.2708732581305,0.09679957289859879
1234.8312113884967,0.0986264723552148
1237.3908032074723,0.10050768719058048
1239.9188240118929,0.10242037306306487
1242.4769331685857,0.10441191954867132
1245.0342969881858,0.1064599986108429
1247.560117592806,0.1085394724196671
1250.116000685306,0.11070151310277168
1252.6711394133126,0.11292143952432189
1255.194762689218,0.11517165231065972
1257.7484226219312,0.11750707065708714
1260.3013391610693,0.11990046680728894
1262.822767974354,0.12232164229155781
1265.3742076466478,0.12482912326359882
1267.924904894593,0.1273929756203123
1270.4441421063602,0.12998032482153574
1272.993364412563,0.13265304553341076
1275.5418452619597,0.1353784085137128
1278.0588937283464,0.1381208871263232
1280.6059015577484,0.14094532674225288
1283.1521688962057,0.14381623406412353
1285.6670314683906,0.14669560290238304
1288.2118277052796,0.14965076910027164
1290.755884415401,0.15264368118164595
1293.2685639396113,0.15563421995724283
1295.811151463251,0.15869166509815683
1298.3530004226377,0.16177583412115698
1300.8634997401532,0.1648450810042747
1303.403881424827,0.16797006435124068
1305.9129317732186,0.17107124707168367
1308.4518474532706,0.17421990363549175
1310.9900261682633,0.17737387233750235
1313.4969010306886,0.18049077597437904
1316.0336156473168,0.18364239370567956
1318.5695942569437,0.18678656775352398
1321.074296461582,0.18988168235579705
1323.6088128757874,0.19299954087801305
1326.112071126503,0.1960616427675761
1328.6451266095319,0.1991395322669255
1331.1774476773753,0.2021928772083217
1333.6785379692556,0.2051828210420294
1336.209400003383,0.20818003639220814
1338.7090494631484,0.2111103425912978
1341.2384537241596,0.21404344292850228
1343.76712515721,0.2169417959516558
1346.2646113435585,0.219769634302837
1348.7918268954818,0.2225944698456057
1351.2878753625337,0.22534674657918397
1353.8136362903097,0.22809194054965484
1356.338665972784,0.2307943442860051
1358.832555838333,0.2334199875161983
1361.3561327831994,0.23603029167736414
1363.8485880333137,0.23855930020893573
1366.3707134939323,0.24106503108818947
1368.8921092873425,0.24351200904596695
1371.3824105944368,0.24586693833676806
1373.9023567847216,0.24818165252752747
1376.3912265713043,0.25039420320853567
1378.9097244082113,0.2525516376179104
1381.3971639082774,0.2545945754371598
1383.914214640121,0.2565648045125599
1386.4002250862322,0.25840651438563295
1388.9158299598967,0.26015583976675083
1391.4307079939972,0.26178060751769117
1393.9145728441363,0.2632546062683877
1396.4280068914595,0.26460494628553405
1398.9104457665926,0.2657907073325249
1401.422437070447,0.26683279707245144
1403.9034511981918,0.2676988964222325
1406.4140010004412,0.26840366858758347
1408.893591607004,0.26892478806257064
1411.4027011481012,0.26927071694106286
1413.8808694582804,0.26943023049575215
1416.388539977259,0.2694057007313009
1418.8954870924463,0.26919403611983833
1421.3715199489052,0.26880266016232895
1423.877029901585,0.2682251126925049
1426.3516435212223,0.26747986295119525
1428.8557175468777,0.2665548542015213
1431.3289131495767,0.2654797922536979
1433.8315524822574,0.26423730809312257
1436.3033312865118,0.26286722237957577
1438.8045371588632,0.261347208153396
1441.2749003817698,0.2597256816184553
1443.7746740250223,0.257975801626837
1446.2436228822844,0.25615278799473395
1448.7419655262602,0.25422583378950453
1451.2095012321843,0.25225503246298714
1453.7064141053015,0.2502062696803625
1456.1725378728079,0.24814257040984788
1458.6680222020732,0.24602727368316296
1461.1327352426997,0.24392448562584215
1463.6267922537227,0.24179584147087238
1466.090095777603,0.23970484484854482
1468.582726694589,0.237612321948792
1471.044621910496,0.23557970196598943
1473.5358279562424,0.2335679131759734
1475.996316071556,0.23163506861591884
1478.4860984674815,0.22974308983211375
1480.9451806882025,0.22794576013743462
1483.4335406543069,0.22620683232671526
1485.8912181850574,0.2245749585987892
1488.3781569399653,0.22301648004078856
1490.8344309839958,0.22157430480376472
1493.2900079848114,0.22023372161274335
1495.7748215041174,0.21898433050972677
1498.2289968168734,0.21785964139086839
1500.7123921617567,0.21683506079320344
1503.1651669862695,0.2159374766812187
1505.647145370498,0.21514664576435694
1508.0985209052233,0.2144826840773314
1510.579083541168,0.21392991407658257
1513.02906098319,0.213501620428108
1515.5082090818432,0.2131867738391136
1517.9567896268818,0.21299185000144147
1520.4046764008053,0.2129107133854354
1522.8817092402714,0.21294224537838335
1525.3282009046197,0.2130829437541816
1527.803822224585,0.21333288190651428
1530.2489199716838,0.2136821585133272
1532.7231309783128,0.21413475302823684
1535.16683599912,0.21467469045776896
1537.6098493197496,0.2153012118804652
1540.0819513813403,0.2160171572297217
1542.5235737559778,0.21679832173038344
1544.994268510025,0.2176560320593602
1547.4345011262485,0.2185613654638272
1549.8740435159852,0.21951545473918174
1552.3426338181598,0.22052116882342165
1554.7807882247253,0.22154410594568716
