Raman Shift (cm-1),Fitted Intensity
159.26151312198635,0.011418830283688964
162.17892251266312,0.011583170078948194
165.06070388440276,0.011750000071401836
167.97629817665074,0.01192353214500766
170.89098012548493,0.012101988722270505
173.77006778237046,0.012283370303079431
176.68293717714914,0.012472275627065281
179.59489550712533,0.012666794848161612
182.50594319967058,0.012867187637505627
185.38144153980102,0.013071233970246817
188.29068006676243,0.013284141473986717
191.19900923170644,0.013503801745718993
194.07182265961455,0.013727805972071702
196.97834519226308,0.013961904276829397
199.8839596359394,0.01420382086603
202.75409191031576,0.014450934511115312
205.65790225025557,0.014709630753805669
208.5608057718964,0.014977448532219486
211.42826064439942,0.015251526893261076
214.32936258615155,0.015539002338736339
217.22955897789507,0.015837208871965137
220.09434019320543,0.0161430141333087
222.9927375242005,0.016464450691118224
225.89023057112718,0.016798626098805128
228.75234186693342,0.017142099572766894
231.64803836756255,0.017503983643422358
234.54283184768065,0.01788113582527757
237.4022769547155,0.018269763026952893
240.2952763983085,0.018680292435085524
243.18737408261222,0.01910930503248663
246.04415672466348,0.019552601934246346
248.93446287752522,0.020022225506173722
251.82386852998388,0.020514448374587584
254.67799242389083,0.021024597574837364
257.565609045334,0.021566714519730412
260.41796602711474,0.02212976254496187
263.3037952786035,0.022729374937305882
266.18872612093764,0.023361203898781834
269.0384305290536,0.024019560572876273
271.9215764941182,0.02472294813847086
274.8038253026716,0.025466529660817052
277.65088083558294,0.02624378458216406
280.5313472549242,0.027076763073189958
283.37664243438485,0.02794914180048906
286.2553281173605,0.028885757381754106
289.13311872473423,0.029880511667322415
291.97577117291803,0.030924789284097635
294.85178352428557,0.032048302311243095
297.6926797004962,0.03322899186622534
300.5669154435891,0.03450026733576919
303.44025818556474,0.03585350707303428
306.2785177554506,0.037276305754507445
309.150086361853,0.038808222185320006
311.98659372863403,0.04041795031343812
314.85638984211255,0.04214941992047716
317.69114662786524,0.043966256943578585
320.55917188903913,0.04591684192606403
323.42630704161274,0.047984120787456536
326.25843576130865,0.05014490302406502
329.1238025236089,0.052454031804373254
331.9541847135806,0.054858350273195015
334.8177847211591,0.057416549956114026
337.6464219965019,0.06006721718815037
340.5082568828984,0.06287227232989466
343.3351508567066,0.06576143274457102
346.1952222534492,0.06879901618101304
349.0203745368344,0.07190563675695714
351.8786840734356,0.07514700141756087
354.7361080202609,0.07847499858904809
357.55864557949826,0.0818353629321268
360.4143101115624,0.08529375425149337
363.23511000427607,0.08875082082949096
366.08901674608205,0.09227074117687747
368.90808057645336,0.09574925655871427
371.7602311504961,0.09924799397195848
374.57756052071636,0.10266071350263059
377.42795654749716,0.1060455828751435
380.2435530577968,0.10929796841896686
383.0921961558306,0.11247188917895101
385.90606140446107,0.1154683454576008
388.7529531902692,0.11833676549895669
391.56508877352826,0.12098793908951878
394.41023086164205,0.12346651026889713
397.2206383738594,0.12569696881493406
400.0640323768239,0.12771921020534938
402.8727134103756,0.12947470220892127
405.71436093876036,0.13099882801431573
408.5213170840616,0.1322523297829556
411.36121974646085,0.13326649398349097
414.16645259197685,0.13402239271021446
417.00461199500205,0.1345478123259599
419.8081231272481,0.13484384017782758
422.6107791472823,0.1349356337292624
425.446331879084,0.13484246566527608
428.2472685572284,0.13459190284490913
431.0810820327788,0.1342072449870085
433.88030095069917,0.13372980917607077
436.71237676973396,0.13318386758834586
439.5098795071426,0.13262047054821366
442.3402192674366,0.13206742782986516
445.1360074021177,0.13158122159808275
447.930943955329,0.1312005226734366
450.75868780728706,0.1309718338579281
453.5519121161087,0.13095213637883982
456.3779238904244,0.13119674877610207
459.1694375278166,0.13175872575462963
461.99371881542174,0.13271626855806362
464.7835233524238,0.1341159410783977
467.5724790401364,0.13604217185729786
470.39417274803054,0.13861303828189692
473.18142168360646,0.14186094840433552
476.00138886887726,0.1459699104273514
478.7869326185464,0.1509573474334829
481.60517486533354,0.1570719761045257
484.3890149934232,0.1643049603039346
487.17200899273666,0.17286557459382404
489.9876719528438,0.1830305876652268
492.76896466880135,0.1947021467646413
495.5829066375736,0.20829458026594772
498.3624996297294,0.22358966867769325
501.14124842855017,0.2408027741576378
503.9526170105346,0.2601842599002584
506.7296684166504,0.2812068892804988
509.505876786945,0.30393586625292407
512.3146755106209,0.3284157075017073
515.0891888150436,0.3536984114865718
517.8962728359329,0.3799138714215001
520.6690926264382,0.40587091190318614
523.4410713071484,0.43124470084451305
526.2455913408958,0.45563934723942223
529.0158788274384,0.4777878739545009
531.785326356061,0.497349898202417
534.5872859139781,0.5139444058937184
537.3550445639485,0.526735270855778
540.1219644057746,0.5356541343355913
542.9213669927594,0.5406172793578244
545.686600267225,0.5415593987509653
548.4509958812232,0.5387757949869608
551.2478449957853,0.532520323087582
554.0105563494981,0.5233953014002062
556.805701690384,0.5117059412462881
559.5667303225964,0.4982703592465165
562.3269232040038,0.4834834301638793
565.0862807140293,0.4678222737711388
567.8780333537688,0.4515039828675936
570.6357112050464,0.4352566520150514
573.3925548263542,0.4191449031417134
576.1817644509756,0.403163620970485
578.9369307080196,0.3878126060775911
581.6912638744288,0.3729660810594683
584.4779339570123,0.35848460606495197
587.2305920494691,0.3447189798498135
589.9824181885451,0.3314872462384169
592.7665521958479,0.3186298086620579
595.5167055471175,0.30644573519185625
598.2660280801974,0.2947778574598936
601.0145201715131,0.2836323048716595
603.7952814999189,0.2728972005321333
606.5421038421155,0.2628457646052919
609.2880968749887,0.25336687865909335
612.0663301881068,0.244377101326293
614.8106557483188,0.23610827452872937
617.554153129593,0.22846315614692642
620.2968227067649,0.22144952269934903
623.0716940541533,0.2149956523918603
625.8126991844802,0.20924962983940806
628.552877638358,0.20411858250159404
631.2922297897167,0.19958410586305267
634.0637452701958,0.19557804379184224
636.8014359932095,0.19216721801354814
639.5383015386324,0.18926885266320714
642.3073015987065,0.1868225651741945
645.0425079771339,0.18485097511021373
647.7768903008473,0.1832865955765398
650.5104489421938,0.18209447851604768
653.2431842732913,0.18124106006954582
656.0080062575216,0.18069000341180236
658.7390861754284,0.18042527754661544
661.4693439025905,0.1804128091366655
664.1987798102273,0.18063040648303158
666.9602641357596,0.1810661759556871
669.6880476268889,0.18169555994467299
672.4150104152941,0.18251304474161717
675.141152871307,0.1835140647879957
677.8993055782594,0.18471474707116498
680.6237986072192,0.1860930156534364
683.3474724178923,0.1876747709561181
686.0703273797008,0.1894796264289967
688.7923638618704,0.1915348851690213
691.5463630106569,0.1939066614109054
694.2667537902307,0.1965848749815481
696.9863272009134,0.19965330843235987
699.705083611032,0.20318242644799
702.4230233886883,0.20725782415367314
705.1728783546314,0.2120438546539084
707.8891761429404,0.21755072831941075
710.6046584062024,0.22397653333898643
713.3193255116239,0.23149074196166522
716.033177826208,0.24028823449469536
718.7462157167283,0.2505890182329957
721.491111983778,0.2627924785861274
724.2025123243511,0.2768699737701261
726.9130993442814,0.2932215251465842
729.6228734094693,0.31210385279999886
732.3318348855792,0.3337433526865235
735.0399841380749,0.3583090273331439
737.7799351068679,0.3862310051848544
740.4864512328204,0.4167986300818822
743.1921562345997,0.45012108008756224
745.8970504767931,0.48580510048720277
748.6011343237551,0.5232501664545626
751.3044081396256,0.5616450199448506
754.0394271625555,0.6004414704582041
756.741072259374,0.6375445490588111
759.4419084205874,0.6721695496917816
762.1419360094733,0.7030646166270947
764.8411553890837,0.7290782793289713
767.539566922238,0.7492741035597191
770.2371709715626,0.7630540944818393
772.9339678994475,0.7702984474407474
775.6624349602753,0.7715427776466155
778.3576090181923,0.7683786653739539
781.0519770449282,0.7644966889928688
783.7455394020071,0.7684886824455915
786.4382964507422,0.8006340958736803
789.1302485522319,0.8898763300520985
791.8213960673565,1.009237549803627
794.5117393567816,1.022612621495995
797.2012787809545,0.8745688804247745
799.922404211542,0.693812420212472
802.6103273114531,0.5775617200810863
805.2974476305062,0.5124286883639949
807.9837655282827,0.4726055402323406
810.6692813641639,0.4458674904714483
813.3539954973021,0.4275452791749346
816.037908286642,0.41564171813989936
818.7210200909067,0.4091057091159276
821.4033312686151,0.4072511604783486
824.0848421780756,0.4095402546710793
826.7655531773598,0.4154932475311953
829.4777478409233,0.4247746694204836
832.1568504666102,0.4366904960646273
834.8351542594137,0.450848206860705
837.5126595765614,0.46674169178198105
840.1893667750774,0.4838432995500891
842.8652762117599,0.5016085335706071
845.5403882432074,0.5194855186836598
848.2147032257963,0.5369289913797911
850.8882215157028,0.55341820928626
853.5609434688704,0.5684777855351217
856.2328694410462,0.5817001033752729
858.9039997877626,0.5927677011948085
861.5743348643446,0.6014738600799776
864.2438750258916,0.6077395764846513
866.9126206273068,0.6116251462536625
869.5805720232747,0.613334700075999
872.2477295682729,0.6132121976908632
874.9140936165568,0.6117276155667122
877.5796645221853,0.6094523953957979
880.2444426389957,0.607023746349869
882.9084283206321,0.6050982280960301
885.5716219205024,0.6042962874564695
888.2340237918252,0.6051411087693157
890.8956342876045,0.6079971533695582
893.5564537606224,0.6130158039289352
896.2164825634645,0.6200971090074882
898.8757210485091,0.6288771640566638
901.566194253428,0.6388721878298501
904.2238436478765,0.6490484598564616
906.88070378462,0.658655025780287
909.5047788508018,0.6668047017070177
912.1600710251078,0.6731403406246197
914.8145749914547,0.6774184627705092
917.4682911007549,0.6801253866083238
920.1212197037094,0.6825254335794066
922.7733611508156,0.6867153536626072
925.4247157923564,0.6954576909703306
928.0752839784072,0.7116381622843763
930.725066058847,0.7372412381090891
933.3740623833291,0.7719554787272614
936.0222733013143,0.8118965974357779
938.669699162052,0.8492619455463202
941.3163403145809,0.8736409167592772
943.9621971077358,0.874984482519131
946.607269890148,0.8471708314474921
949.2515590102339,0.7904544111152244
951.8950648162136,0.7114935228190072
954.5377876560888,0.6209715668063328
957.1797278776648,0.5301457273926538
959.8208858285398,0.44809668827260996
962.4612618561077,0.3810279280411053
965.1008563075484,0.3347772378721875
967.7396695298376,0.31978403127674
970.3777018697583,0.33325426519388673
973.0149536738754,0.31727399586660987
975.65142528855,0.25113511835496977
978.2871170599428,0.19413504039035268
980.8902880408277,0.16323862685355184
983.5244305486303,0.14477571789908716
986.1577942462391,0.13183611718982877
988.7903794789963,0.12181603001660259
991.4221865920408,0.11364944963930312
994.0532159303111,0.1067925933756452
996.6834678385349,0.10092230307314667
999.3129426612431,0.09582640249359803
1001.9416407427561,0.09135595358570542
1004.5695624271975,0.08740141644466373
1007.1967080584836,0.08387944548512799
1009.8230779803271,0.08072497417871426
1012.4170434801454,0.07791866885706226
1015.041872349022,0.07535048816881448
1017.665926534246,0.07302194394396155
1020.2892063787294,0.07090438136303563
1022.9117122251773,0.06897377981187858
1025.5334444160871,0.06720982935027814
1028.15440329376,0.06559522663353264
1030.7745892002931,0.06411512992070015
1033.3940024775802,0.06275673160866527
1035.9810981708106,0.06152333425075824
1038.598976513018,0.06037525479054011
1041.2160832463414,0.059319680317125284
1043.832418711885,0.05834913582919134
1046.447983250535,0.05745702349549907
1049.0627772029802,0.05663750008278101
1051.676800909714,0.05588537481702238
1054.290054711022,0.05519602376812609
1056.8710678120515,0.0545725825088742
1059.48279208834,0.05399618412709
1062.093747474777,0.05347145873449442
1064.7039343108554,0.05299542543605325
1067.313352935871,0.05256540266328378
1069.9220036889128,0.05217897522862153
1072.4984711957586,0.05183788402413245
1075.105596462614,0.05153186413570061
1077.7119548694973,0.051263546042321015
1080.317546754708,0.05103132824419531
1082.9223724563308,0.05083376591819601
1085.5264323122756,0.05066955649161993
1088.1297266602414,0.05053752696004936
1090.700904617097,0.05043765702077363
1093.3026781742628,0.0503665736169936
1095.90368723129,0.05032483281500964
1098.5039321250988,0.05031167940715607
1101.1034131923952,0.05032644353395646
1103.6708254619662,0.05036786696038637
1106.2687890782108,0.05043644806562471
1108.8659898728438,0.05053139680510213
1111.4624281817887,0.05065232964884836
1114.0581043407765,0.050798924169389914
1116.6217591897112,0.050968693225163855
1119.2159212276165,0.051165569388786775
1121.8093221175222,0.0513874764180018
1124.4019621943662,0.05163430570475183
1126.9938417929043,0.05190599638258334
1129.5537474636767,0.05219881282259046
1132.1441162613737,0.05251992571177222
1134.7337255797866,0.052865985596294844
1137.322575752878,0.05323710597860477
1139.9106671144218,0.05363344101696711
1142.466831825419,0.054049951264166646
1145.0534156966605,0.05449702580394634
1147.6392417524658,0.054970009417489446
1150.2243103258224,0.055469210532303845
1152.7774899721844,0.05598848076278943
1155.3610536951164,0.05654086373763299
1157.9438609293902,0.057120606271465514
1160.5259120072114,0.05772816327075979
1163.1072072606003,0.05836402566752256
1165.6566606759006,0.05902053806862288
1168.2364543720396,0.05971426951154944
1170.8154932346333,0.06043798590736813
1173.3937775949307,0.061192319915508886
1175.940257690534,0.06196828500416998
1178.5170431196166,0.06278550237057244
1181.0930750349762,0.06363543532896453
1183.6683537670833,0.06451885442637242
1186.2118657414467,0.06542529967676751
1188.7856481622657,0.0663777079591379
1191.3586783861065,0.06736610206276716
1193.9309567426717,0.06839138206093238
1196.471505782134,0.06944144094052271
1199.0422904412299,0.07054283906991857
1201.6123242170252,0.07168398627168288
1204.1506566845674,0.07285140704853237
1206.7191987172919,0.07407459855611703
1209.2869908489847,0.07534062556879939
1211.8540334080099,0.0766505594656119
1214.389411983815,0.07798888892482421
1216.9549654029506,0.0793893400436879
1219.5197702293917,0.08083696494436864
1222.0529389950316,0.08231454916127054
1224.61625662804,0.0838592145983878
1227.1788266466283,0.0854543167848395
1229.7406493778217,0.08710091789101046
1232.2708732581305,0.08877926409831402
1234.8312113884967,0.0905312784126504
1237.3908032074723,0.09233776305052793
1239.9188240118929,0.09417684735927653
1242.4769331685857,0.0960942044376464
1245.0342969881858,0.09806848649032586
1247.560117592806,0.10007551869807549
1250.116000685306,0.10216479002646534
1252.6711394133126,0.10431259236675428
1255.194762689218,0.10649227071703643
1257.7484226219312,0.10875711496824585
1260.3013391610693,0.11108085792976169
1262.822767974354,0.1134342223041322
1265.3742076466478,0.11587418650655293
1267.924904894593,0.1183717654790032
1270.4441421063602,0.12089498471359292
1272.993364412563,0.12350429419440437
1275.5418452619597,0.1261679141349269
1278.0588937283464,0.12885120940933942
1280.6059015577484,0.13161778985962058
1283.1521688962057,0.13443314059057465
1285.6670314683906,0.13726016513250086
1288.2118277052796,0.14016525946237246
1290.755884415401,0.14311142919390793
1293.2685639396113,0.14605952457871352
1295.811151463251,0.14907834827690894
1298.3530004226377,0.15212892433973357
1300.8634997401532,0.15517068562859787
1303.403881424827,0.15827452624538535
1305.9129317732186,0.16136245586718567
1308.4518474532706,0.16450664540923732
1310.9900261682633,0.16766656028416568
1313.4969010306886,0.17080114654669476
1316.0336156473168,0.17398443076685882
1318.5695942569437,0.1771761788820877
1321.074296461582,0.180336168177469
1323.6088128757874,0.18354030733326454
1326.112071126503,0.18671073824888257
1328.6451266095319,0.18992465029353173
1331.1774476773753,0.1931437970451415
1333.6785379692556,0.19633017610218495
1336.209400003383,0.19956285014212471
1338.7090494631484,0.20276562965306133
1341.2384537241596,0.2060186574365451
1343.76712515721,0.20928515260828365
1346.2646113435585,0.21252770723373648
1348.7918268954818,0.21582746946652337
1351.2878753625337,0.2191066078503461
1353.8136362903097,0.22244623700301258
1356.338665972784,0.2258068176368395
1358.832555838333,0.22914675857049635
1361.3561327831994,0.23254547073909282
1363.8485880333137,0.23591749701551318
1366.3707134939323,0.23933965080216976
1368.8921092873425,0.24276334247252496
1371.3824105944368,0.24613769887793033
1373.9023567847216,0.2495329083178001
1376.3912265713043,0.25285278471987915
1378.9097244082113,0.2561611624233022
1381.3971639082774,0.2593590117362225
1383.914214640121,0.2625023541965804
1386.4002250862322,0.26549174385214924
1388.9158299598967,0.26837423404761407
1391.4307079939972,0.27108515752521467
1393.9145728441363,0.2735673449139944
1396.4280068914595,0.27585330675956704
1398.9104457665926,0.2778610050193661
1401.422437070447,0.2796134391435675
1403.9034511981918,0.28104502647509766
1406.4140010004412,0.2821699757487127
1408.893591607004,0.282944509659747
1411.4027011481012,0.2833749898990467
1413.8808694582804,0.2834435622370878
1416.388539977259,0.28314957656726975
1418.8954870924463,0.2824931595923987
1421.3715199489052,0.28149721885435325
1423.877029901585,0.28015127984044225
1426.3516435212223,0.2785061292067996
1428.8557175468777,0.2765445945395831
1431.3289131495767,0.274340114373034
1433.8315524822574,0.27186842928052957
1436.3033312865118,0.2692202318263341
1438.8045371588632,0.2663639233506996
1441.2749003817698,0.26340138324190265
1443.7746740250223,0.26029385078778366
1446.2436228822844,0.2571484681578729
1448.7419655262602,0.25392007468777306
1451.2095012321843,0.2507158859888957
1453.7064141053015,0.2474856770232297
1456.1725378728079,0.24433259464245954
1458.6680222020732,0.24120311475806885
1461.1327352426997,0.2381932856976378
1463.6267922537227,0.23524826989926262
1466.090095777603,0.23245499657364652
1468.582726694589,0.2297593096977839
1471.044621910496,0.2272378200923581
1473.5358279562424,0.22483888817569114
1475.996316071556,0.22262822116438624
1478.4860984674815,0.2205582595228442
1480.9451806882025,0.21868364850393424
1483.4335406543069,0.21696214585474294
1485.8912181850574,0.21543745370962078
1488.3781569399653,0.21407354648163393
1490.8344309839958,0.2129034701788083
1493.2900079848114,0.21190904247288164
1495.7748215041174,0.21107989059325855
1498.2289968168734,0.2104338399972533
1500.7123921617567,0.20995229141349606
1503.1651669862695,0.20964345726558178
1505.647145370498,0.209495790681401
1508.0985209052233,0.20950836632588923
1510.579083541168,0.20967640795279746
1513.02906098319,0.2099903541484916
1515.5082090818432,0.2104517409377993
1517.9567896268818,0.211042910486563
1520.4046764008053,0.2117615778104258
1522.8817092402714,0.21261114732647327
1525.3282009046197,0.21356298158006704
1527.803822224585,0.21463141182315376
1530.2489199716838,0.21578135888024652
1532.7231309783128,0.2170307685679583
1535.16683599912,0.21833897937958857
1537.6098493197496,0.21970949170135592
1540.0819513813403,0.2211482307162811
1542.5235737559778,0.22260813732243495
1544.994268510025,0.22411163640671664
1547.4345011262485,0.22560898237663587
1549.8740435159852,0.22710428991808915
1552.3426338181598,0.2286011345604433
1554.7807882247253,0.2300486464041311
