Raman Shift (cm-1),Fitted Intensity
159.26151312198635,0.013482510176106764
162.17892251266312,0.013648213378205487
165.06070388440276,0.013815570018568224
167.97629817665074,0.013988737577738298
170.89098012548493,0.014165853905086553
173.77006778237046,0.014344875543129507
176.68293717714914,0.01453025985542102
179.59489550712533,0.014720026708701883
182.50594319967058,0.014914335887106934
185.38144153980102,0.015110957647026111
188.29068006676243,0.015314804655703288
191.19900923170644,0.01552372209251253
194.07182265961455,0.015735324029431473
196.97834519226308,0.01595491343065923
199.8839596359394,0.016180190039786706
202.75409191031576,0.016408595403857487
205.65790225025557,0.01664587341093289
208.5608057718964,0.016889564339552177
211.42826064439942,0.017136918660817405
214.32936258615155,0.017394181565288446
217.22955897789507,0.01765871831395849
220.09434019320543,0.01792756722178369
222.9927375242005,0.01820754752609973
225.89023057112718,0.0184958323414074
228.75234186693342,0.018789223880855396
231.64803836756255,0.019095204077133734
234.54283184768065,0.019410735249067623
237.4022769547155,0.0197323563738725
240.2952763983085,0.02006832150858326
243.18737408261222,0.020415362275692857
246.04415672466348,0.020769723849012517
248.93446287752522,0.021140569468613684
251.82386852998388,0.021524379573712858
254.67799242389083,0.0219170714953434
257.565609045334,0.022328892164411904
260.41796602711474,0.022750872160287088
263.3037952786035,0.023194100838618597
266.18872612093764,0.02365459818235697
269.0384305290536,0.024127652237646437
271.9215764941182,0.02462585184242946
274.8038253026716,0.025144923299617112
277.65088083558294,0.0256797252618583
280.5313472549242,0.02624471151586136
283.37664243438485,0.026828127743537752
286.2553281173605,0.027445935717794228
289.13311872473423,0.028093388876966566
291.97577117291803,0.028764559308099284
294.85178352428557,0.029478215218055298
297.6926797004962,0.030220209457673862
300.5669154435891,0.03101164715101497
303.44025818556474,0.03184746065379584
306.2785177554506,0.03272090289178698
309.150086361853,0.03365755278452852
311.98659372863403,0.034640114529739016
314.85638984211255,0.03569797337934692
317.69114662786524,0.0368122466390462
320.55917188903913,0.038016963766701745
323.42630704161274,0.03930724158311703
326.25843576130865,0.040675047112435775
329.1238025236089,0.04216328516293918
331.9541847135806,0.04374732654901159
334.8177847211591,0.045477373629704096
337.6464219965019,0.04732509718663062
340.5082568828984,0.049349059266131354
343.3351508567066,0.051515710017426594
346.1952222534492,0.053892756739064615
349.0203745368344,0.05643916652182957
351.8786840734356,0.05923200920493358
354.7361080202609,0.06225705428307288
357.55864557949826,0.06548775828262429
360.4143101115624,0.06901363814137627
363.23511000427607,0.07275929563173757
366.08901674608205,0.0768197217497827
368.90808057645336,0.08109800519317688
371.7602311504961,0.08569101251105803
374.57756052071636,0.09047644198135807
377.42795654749716,0.09554872363752384
380.2435530577968,0.10075836440738413
383.0921961558306,0.10619313002381475
385.90606140446107,0.11167810445819883
388.7529531902692,0.11729125800405013
391.56508877352826,0.1228387689399366
394.41023086164205,0.12838770704214064
397.2206383738594,0.13373693487466595
400.0640323768239,0.1389440289307663
402.8727134103756,0.14381623758882428
405.71436093876036,0.14840533442222137
408.5213170840616,0.15254443393136294
411.36121974646085,0.15628450355582202
414.16645259197685,0.1595004758603531
417.00461199500205,0.1622473674253623
419.8081231272481,0.16445290369069476
422.6107791472823,0.16616180929156882
425.446331879084,0.16741096063238664
428.2472685572284,0.16821086393143017
431.0810820327788,0.16863591162268335
433.88030095069917,0.1687423911327215
436.71237676973396,0.16861042418967753
439.5098795071426,0.1683269110686313
442.3402192674366,0.167975053939144
445.1360074021177,0.1676541876650459
447.930943955329,0.1674504487722036
450.75868780728706,0.1674537597595112
453.5519121161087,0.16774989067961782
456.3779238904244,0.1684288166252978
459.1694375278166,0.16955111872645318
461.99371881542174,0.17121701736334333
464.7835233524238,0.17345465561535364
467.5724790401364,0.17634444805082186
470.39417274803054,0.1799961850872541
473.18142168360646,0.1843845165575406
476.00138886887726,0.18967829304092534
478.7869326185464,0.19581518794941968
481.60517486533354,0.20301013111987487
484.3890149934232,0.21116007435680584
487.17200899273666,0.2204136201935626
489.9876719528438,0.23097194612928154
492.76896466880135,0.24264825922921524
495.5829066375736,0.25578012291554986
498.3624996297294,0.27009431587255744
501.14124842855017,0.2857546709505419
503.9526170105346,0.302956664891369
506.7296684166504,0.3212307658815806
509.505876786945,0.34066299418726814
512.3146755106209,0.3613346452231489
515.0891888150436,0.3825164766947444
517.8962728359329,0.40440963654907963
520.6690926264382,0.4261241026543906
523.4410713071484,0.4474979106393032
526.2455913408958,0.4683100914442647
529.0158788274384,0.48757582409829775
531.785326356061,0.5050652008244361
534.5872859139781,0.5204900262069061
537.3550445639485,0.5330758728402849
540.1219644057746,0.5426958960181909
542.9213669927594,0.5491809291764448
545.686600267225,0.5522620276791894
548.4509958812232,0.5520423661911243
551.2478449957853,0.5485862483440973
554.0105563494981,0.5422102373227484
556.805701690384,0.5330923455672271
559.5667303225964,0.5218456557726867
562.3269232040038,0.5088121550766788
565.0862807140293,0.4944445431656978
567.8780333537688,0.4790008285396388
570.6357112050464,0.46326986362699635
573.3925548263542,0.4474440592367537
576.1817644509756,0.4316536064046339
578.9369307080196,0.416530584645481
581.6912638744288,0.4020756438365629
584.4779339570123,0.38826068424464616
587.2305920494691,0.37549324360892034
589.9824181885451,0.3636365823119565
592.7665521958479,0.35256126637607854
595.5167055471175,0.34250095166586203
598.2660280801974,0.3332702623925491
601.0145201715131,0.3248101238004997
603.7952814999189,0.31696699424059854
606.5421038421155,0.30986222975294075
609.2880968749887,0.3033362642471805
612.0663301881068,0.2972623557534066
614.8106557483188,0.2917331262918885
617.554153129593,0.28662806762072085
620.2968227067649,0.2819081865313904
623.0716940541533,0.2774896437228546
625.8126991844802,0.27344928793834083
628.552877638358,0.2697088511379937
631.2922297897167,0.2662484555599447
634.0637452701958,0.2630143235442099
636.8014359932095,0.2600690245406314
639.5383015386324,0.2573602394094178
642.3073015987065,0.2548487613489195
645.0425079771339,0.25258502582490466
647.7768903008473,0.25052970341310715
650.5104489421938,0.24867578071353086
653.2431842732913,0.24701730943021308
656.0080062575216,0.24553292959032802
658.7390861754284,0.2442543907683738
661.4693439025905,0.24316078319413026
664.1987798102273,0.2422517094867679
666.9602641357596,0.24152122118145988
669.6880476268889,0.24099075784603124
672.4150104152941,0.24065733015741866
675.141152871307,0.2405310819623597
677.8993055782594,0.24062860480937884
680.6237986072192,0.24096636885981706
683.3474724178923,0.2415681238454575
686.0703273797008,0.2424640298425561
688.7923638618704,0.243691471156342
691.5463630106569,0.24531807380034915
694.2667537902307,0.24736121941640404
696.9863272009134,0.24990470535811563
699.705083611032,0.25302812389089174
702.4230233886883,0.2568254852797661
705.1728783546314,0.2614672665036382
707.8891761429404,0.2669716511065723
710.6046584062024,0.27353459197258356
713.3193255116239,0.2813198233609699
716.033177826208,0.2905077791098518
718.7462157167283,0.301292377135745
721.491111983778,0.3140387941957992
724.2025123243511,0.3286465914061006
726.9130993442814,0.345444460773278
729.6228734094693,0.3645922966008416
732.3318348855792,0.38620285945948146
735.0399841380749,0.4103203590085465
737.7799351068679,0.43723246607048627
740.4864512328204,0.4661358676020053
743.1921562345997,0.4970426780844932
745.8970504767931,0.5295148796926218
748.6011343237551,0.562966979212997
751.3044081396256,0.596674803607458
754.0394271625555,0.6301899067829294
756.741072259374,0.6617856174083567
759.4419084205874,0.6909193484571584
762.1419360094733,0.7166804785741107
764.8411553890837,0.73826775404183
767.539566922238,0.7550704559309692
770.2371709715626,0.7667602043138209
772.9339678994475,0.773407445162749
775.6624349602753,0.7756736935628018
778.3576090181923,0.7751652842297535
781.0519770449282,0.7756110105205017
783.7455394020071,0.7855716276712684
786.4382964507422,0.8236295401902735
789.1302485522319,0.9114019213103881
791.8213960673565,1.0197688608141875
794.5117393567816,1.0375727479696433
797.2012787809545,0.9150946336257427
799.922404211542,0.7490939585113104
802.6103273114531,0.6321185670968629
805.2974476305062,0.5639262083979858
807.9837655282827,0.5223361997945741
810.6692813641639,0.4943811875516279
813.3539954973021,0.47475348167540427
816.037908286642,0.46122313041149426
818.7210200909067,0.45268468269899326
821.4033312686151,0.4484664711548155
824.0848421780756,0.44807225825019603
826.7655531773598,0.4510759160295404
829.4777478409233,0.45716443051504607
832.1568504666102,0.46579009972803126
834.8351542594137,0.47660297439017063
837.5126595765614,0.48918751544871597
840.1893667750774,0.5031174416175415
842.8652762117599,0.5179579801620546
845.5403882432074,0.5332705170539142
848.2147032257963,0.5486195361531474
850.8882215157028,0.5635816895897747
853.5609434688704,0.5777567110042778
856.2328694410462,0.5907797316019286
858.9039997877626,0.6023344218905488
861.5743348643446,0.6121662786092813
864.2438750258916,0.6200953128385884
866.9126206273068,0.6260273664481958
869.5805720232747,0.6299632751667251
872.2477295682729,0.6320050867363793
874.9140936165568,0.6323585109622164
877.5796645221853,0.6313307137253342
880.2444426389957,0.6293224798440471
882.9084283206321,0.6268137048617926
885.5716219205024,0.6243412198028481
888.2340237918252,0.6224682294271113
890.8956342876045,0.6217452924160257
893.5564537606224,0.6226639020394003
896.2164825634645,0.6256053616586167
898.8757210485091,0.630789667468216
901.566194253428,0.6383339710745457
904.2238436478765,0.6478347686423256
906.88070378462,0.658906658194712
909.5047788508018,0.6707322909119964
912.1600710251078,0.6827990700842425
914.8145749914547,0.6941333871468541
917.4682911007549,0.7040386604833714
920.1212197037094,0.7121618744355335
922.7733611508156,0.7187355130695814
925.4247157923564,0.7248165953617054
928.0752839784072,0.7324150097277866
930.725066058847,0.7442871348103572
933.3740623833291,0.7630846826671474
936.0222733013143,0.7896961408113802
938.669699162052,0.8212012061044507
941.3163403145809,0.8497020779591368
943.9621971077358,0.8635934129407582
946.607269890148,0.8517068991495326
949.2515590102339,0.8085349495914181
951.8950648162136,0.7373046863884924
954.5377876560888,0.6487834087222778
957.1797278776648,0.5567107819051026
959.8208858285398,0.47304206328290527
962.4612618561077,0.4061688568785719
965.1008563075484,0.3646229892465662
967.7396695298376,0.3643353771866402
970.3777018697583,0.39328044474735746
973.0149536738754,0.36136622264472357
975.65142528855,0.27399306287825587
978.2871170599428,0.2140043599814776
980.8902880408277,0.18378629830566445
983.5244305486303,0.1651837551078056
986.1577942462391,0.1517539812248246
988.7903794789963,0.14117187390729338
991.4221865920408,0.13244873989879907
994.0532159303111,0.1250638177309992
996.6834678385349,0.11870077404039996
999.3129426612431,0.1131485127082371
1001.9416407427561,0.10825692530728971
1004.5695624271975,0.10391441991947573
1007.1967080584836,0.10003531143525934
1009.8230779803271,0.09655217744117313
1012.4170434801454,0.09344693173152549
1015.041872349022,0.09060017238783938
1017.665926534246,0.08801529552945514
1020.2892063787294,0.08566190697683607
1022.9117122251773,0.08351441341184392
1025.5334444160871,0.08155108614596493
1028.15440329376,0.07975334318998356
1030.7745892002931,0.07810519055235524
1033.3940024775802,0.07659278183965351
1035.9810981708106,0.07522010541866045
1038.598976513018,0.0739432427867624
1041.2160832463414,0.07277039069832246
1043.832418711885,0.07169338082065112
1046.447983250535,0.07070498712902307
1049.0627772029802,0.06979879659402245
1051.676800909714,0.06896910107843154
1054.290054711022,0.0682108064449174
1056.8710678120515,0.06752730518296393
1059.48279208834,0.0668978798156143
1062.093747474777,0.0663275863940474
1064.7039343108554,0.06581312039320104
1067.313352935871,0.0653515051772906
1069.9220036889128,0.06494005647451948
1072.4984711957586,0.06458045827838739
1075.105596462614,0.06426177263573092
1077.7119548694973,0.06398668916758707
1080.317546754708,0.06375342034653762
1082.9223724563308,0.0635603520206842
1085.5264323122756,0.06340602766395131
1088.1297266602414,0.06328913450426252
1090.700904617097,0.06320925144114646
1093.3026781742628,0.06316337947764275
1095.90368723129,0.06315175821765158
1098.5039321250988,0.06317353959935261
1101.1034131923952,0.0632279706977476
1103.6708254619662,0.06331315785921707
1106.2687890782108,0.06343060211404183
1108.8659898728438,0.06357895021090659
1111.4624281817887,0.06375776874448501
1114.0581043407765,0.06396669252663797
1116.6217591897112,0.06420236820559767
1119.2159212276165,0.06447030640324068
1121.8093221175222,0.06476762988813722
1124.4019621943662,0.0650942120425064
1126.9938417929043,0.06544997944327866
1129.5537474636767,0.0658300984542306
1132.1441162613737,0.06624386671115604
1134.7337255797866,0.06668689842344747
1137.322575752878,0.0671593140110639
1139.9106671144218,0.0676612789602509
1142.466831825419,0.06818641837904633
1145.0534156966605,0.06874779031706946
1147.6392417524658,0.06933946468312566
1150.2243103258224,0.06996177740770432
1152.7774899721844,0.07060704783117443
1155.3610536951164,0.07129142732950816
1157.9438609293902,0.07200769150677194
1160.5259120072114,0.07275633728223954
1163.1072072606003,0.07353790105901703
1165.6566606759006,0.07434293677447798
1168.2364543720396,0.07519168768229183
1170.8154932346333,0.07607519214246757
1173.3937775949307,0.0769941416485625
1175.940257690534,0.07793754020968384
1178.5170431196166,0.07892915750442843
1181.0930750349762,0.07995851322282259
1183.6683537670833,0.08102644989094261
1186.2118657414467,0.08212026637201014
1188.7856481622657,0.08326754747014992
1191.3586783861065,0.08445614435688881
1193.9309567426717,0.08568704271467924
1196.471505782134,0.08694564795628187
1199.0422904412299,0.08826369889139254
1201.6123242170252,0.08962719209928045
1204.1506566845674,0.09101996913546812
1206.7191987172919,0.09247712730018276
1209.2869908489847,0.09398312718282674
1211.8540334080099,0.09553915360495108
1214.389411983815,0.09712673566350194
1216.9549654029506,0.09878580062041589
1219.5197702293917,0.10049852699058599
1222.0529389950316,0.10224452032718907
1224.61625662804,0.10406758720025988
1227.1788266466283,0.1059479955843653
1229.7406493778217,0.10788695965470935
1232.2708732581305,0.1098612313867462
1234.8312113884967,0.11192011561788423
1237.3908032074723,0.1140410226249897
1239.9188240118929,0.11619833435636674
1242.4769331685857,0.11844567220514599
1245.0342969881858,0.12075805094237042
1247.560117592806,0.12310727609938604
1250.116000685306,0.1255513928454131
1252.6711394133126,0.1280627900962904
1255.194762689218,0.1306104961601845
1257.7484226219312,0.13325700725525122
1260.3013391610693,0.13597185956659785
1262.822767974354,0.13872112828259128
1265.3742076466478,0.14157168601832312
1267.924904894593,0.14449001633239802
1270.4441421063602,0.1474391191187065
1272.993364412563,0.15049005010670885
1275.5418452619597,0.15360610254253795
1278.0588937283464,0.15674717153714343
1280.6059015577484,0.15998817806562646
1283.1521688962057,0.16328919634030384
1285.6670314683906,0.16660712623718513
1288.2118277052796,0.17002032100460865
1290.755884415401,0.1734857689174555
1293.2685639396113,0.17695766812590707
1295.811151463251,0.18051728167132386
1298.3530004226377,0.18411885222443453
1300.8634997401532,0.18771438058440829
1303.403881424827,0.1913874623261971
1305.9129317732186,0.19504538832745172
1308.4518474532706,0.19877297254805826
1310.9900261682633,0.20252123006432476
1313.4969010306886,0.20624012557686613
1316.0336156473168,0.21001578619198305
1318.5695942569437,0.213798340953811
1321.074296461582,0.21753763754260652
1323.6088128757874,0.22132044694114342
1326.112071126503,0.2250513534867949
1328.6451266095319,0.22881713146812083
1331.1774476773753,0.2325680803600683
1333.6785379692556,0.2362553114639514
1336.209400003383,0.2399648240109251
1338.7090494631484,0.24360340530513322
1341.2384537241596,0.2472559100960445
1343.76712515721,0.25087380710505497
1346.2646113435585,0.2544101052150849
1348.7918268954818,0.2579467843884371
1351.2878753625337,0.2613941519020183
1353.8136362903097,0.2648313947270153
1356.338665972784,0.26821080102212863
1358.832555838333,0.27148694886964697
1361.3561327831994,0.27473337118340985
1363.8485880333137,0.27786497971549246
1366.3707134939323,0.2809505535406094
1368.8921092873425,0.2839431010230443
1371.3824105944368,0.28679948429764396
1373.9023567847216,0.2895799202556933
1376.3912265713043,0.29220759877142305
1378.9097244082113,0.29473620814100177
1381.3971639082774,0.29709427458035076
1383.914214640121,0.2993284235277457
1386.4002250862322,0.30137409536696813
1388.9158299598967,0.30327045496928323
1391.4307079939972,0.3049810727556069
1393.9145728441363,0.3064790060292666
1396.4280068914595,0.3077917749598373
1398.9104457665926,0.30887984258400186
1401.422437070447,0.3097628924238152
1403.9034511981918,0.3104142379379219
1406.4140010004412,0.3108457871923366
1408.893591607004,0.3110448510103116
1411.4027011481012,0.31101570968539904
1413.8808694582804,0.31076029088641816
1416.388539977259,0.3102754618386944
1418.8954870924463,0.3095679436261845
1421.3715199489052,0.30865693720853427
1423.877029901585,0.3075287011779479
1426.3516435212223,0.30622035119210406
1428.8557175468777,0.30471154119257987
1431.3289131495767,0.303051298553547
1433.8315524822574,0.30121313822527535
1436.3033312865118,0.29925606168016594
1438.8045371588632,0.29714802326343154
1441.2749003817698,0.29495578611055073
1443.7746740250223,0.2926424499611622
1446.2436228822844,0.2902802113644883
1448.7419655262602,0.2878281510587619
1451.2095012321843,0.28536159827320695
1453.7064141053015,0.28283656645917593
1456.1725378728079,0.2803293581894277
1458.6680222020732,0.2777939596980904
1461.1327352426997,0.2753057072740419
1463.6267922537227,0.2728176504609478
1466.090095777603,0.2704024826627149
1468.582726694589,0.26801341515992866
1471.044621910496,0.2657190984153083
1473.5358279562424,0.2634739699006682
1475.996316071556,0.2613415048454706
1478.4860984674815,0.25927836033322466
1480.9451806882025,0.2573419486224805
1483.4335406543069,0.25549203898828077
1485.8912181850574,0.2537793068693526
1488.3781569399653,0.25216740370147417
1490.8344309839958,0.25069977549410605
1493.2900079848114,0.24936012245256917
1495.7748215041174,0.24813771851946553
1498.2289968168734,0.24706458733362954
1500.7123921617567,0.24611652127328876
1503.1651669862695,0.24531768551440997
1505.647145370498,0.24464932887167107
1508.0985209052233,0.24412768917606556
1510.579083541168,0.24373958832727505
1513.02906098319,0.24349335265860164
1515.5082090818432,0.24338134619298654
1517.9567896268818,0.2434040802294504
1520.4046764008053,0.24355663560070537
1522.8817092402714,0.2438398335231436
1525.3282009046197,0.24424285015490427
1527.803822224585,0.24477080325668388
1530.2489199716838,0.24540567917987133
1532.7231309783128,0.24615689827862897
1535.16683599912,0.24699969675934402
1537.6098493197496,0.24793518695887384
1540.0819513813403,0.24896827831716353
1542.5235737559778,0.25006523505291234
1544.994268510025,0.2512430651493696
1547.4345011262485,0.2524630470309177
1549.8740435159852,0.25372801748260077
1552.3426338181598,0.25504228127778134
1554.7807882247253,0.2563616715492973
1557.2479742165997,0.2577050016421692
