Raman Shift (cm-1),Fitted Intensity
159.26151312198635,0.03650338260032101
162.17892251266312,0.03697010637022831
165.06070388440276,0.03744177218792561
167.97629817665074,0.037930104403977115
170.89098012548493,0.038429863393793666
173.77006778237046,0.03893528384817194
176.68293717714914,0.03945895473833249
179.59489550712533,0.03999529131386712
182.50594319967058,0.040544747539677774
185.38144153980102,0.041101014185462775
188.29068006676243,0.04167798881067187
191.19900923170644,0.042269573956928784
194.07182265961455,0.042869003615411905
196.97834519226308,0.043491291936930424
199.8839596359394,0.04412991289842373
202.75409191031576,0.044777595131595654
205.65790225025557,0.04545060715557798
208.5608057718964,0.04614195095067093
211.42826064439942,0.04684379437675137
214.32936258615155,0.04757382140457128
217.22955897789507,0.048324512904351746
220.09434019320543,0.049087412480391425
222.9927375242005,0.04988180887431673
225.89023057112718,0.050699606075460535
228.75234186693342,0.05153165032027329
231.64803836756255,0.052399058750374754
234.54283184768065,0.05329309478862952
237.4022769547155,0.05420382256436698
240.2952763983085,0.055154452991294296
243.18737408261222,0.05613553564265887
246.04415672466348,0.057136253549875254
248.93446287752522,0.05818222750324172
251.82386852998388,0.05926320801164213
254.67799242389083,0.060367380248278465
257.565609045334,0.06152315239158871
260.41796602711474,0.06270488887423185
263.3037952786035,0.06394309732262092
266.18872612093764,0.06522596494205624
269.0384305290536,0.06653969196882753
271.9215764941182,0.06791837251011533
274.8038253026716,0.06934907914019245
277.65088083558294,0.07081657412276916
280.5313472549242,0.07235914308103038
283.37664243438485,0.07394311419780254
286.2553281173605,0.07560995144673549
289.13311872473423,0.07734447104953421
291.97577117291803,0.07912848401993164
294.85178352428557,0.0810089077766851
297.6926797004962,0.08294506360959977
300.5669154435891,0.08498800419712545
303.44025818556474,0.08711957670863987
306.2785177554506,0.08931767279707817
309.150086361853,0.09164042413438583
311.98659372863403,0.09403787466969266
314.85638984211255,0.09657350039335118
317.69114662786524,0.09919281580211137
320.55917188903913,0.10196519428307525
323.42630704161274,0.10486637751280779
326.25843576130865,0.10786625985516088
329.1238025236089,0.11104419764653205
331.9541847135806,0.11433173558927459
334.8177847211591,0.1178156611590487
337.6464219965019,0.12142069821651263
340.5082568828984,0.1252417224398418
343.3351508567066,0.12919582126614515
346.1952222534492,0.1333866283824148
349.0203745368344,0.13772271227690477
351.8786840734356,0.1423171362436057
354.7361080202609,0.1471275804393094
357.55864557949826,0.15210148293810544
360.4143101115624,0.15736731461324127
363.23511000427607,0.16280809788854125
366.08901674608205,0.16856333271620683
368.90808057645336,0.1745040604641521
371.7602311504961,0.18078137380303977
374.57756052071636,0.18725331138874657
377.42795654749716,0.1940830505146302
380.2435530577968,0.20111463423927084
383.0921961558306,0.20852372251359927
385.90606140446107,0.21613942754829066
388.7529531902692,0.22415017170050722
391.56508877352826,0.232369289924824
394.41023086164205,0.24099810181983425
397.2206383738594,0.2498334407063186
400.0640323768239,0.25908948481627275
402.8727134103756,0.2685459985859537
405.71436093876036,0.27842977704583194
408.5213170840616,0.2885031429088175
411.36121974646085,0.2990050329829148
414.16645259197685,0.3096801898956127
417.00461199500205,0.3207789554405319
419.8081231272481,0.3320286318522383
422.6107791472823,0.3435495293442309
425.446331879084,0.3554732135314823
428.2472685572284,0.36750186290190795
431.0810820327788,0.3799091566310793
433.88030095069917,0.39238171735162414
436.71237676973396,0.4051996889752416
439.5098795071426,0.41803564902223994
442.3402192674366,0.4311740845186114
445.1360074021177,0.44427555290338244
447.930943955329,0.4574671062735703
450.75868780728706,0.47087795029393537
453.5519121161087,0.4841556682949005
456.3779238904244,0.4975844738108213
459.1694375278166,0.5108075132090835
461.99371881542174,0.5241038411080822
464.7835233524238,0.5371162651859183
467.5724790401364,0.5499619928069379
470.39417274803054,0.5627489010038351
473.18142168360646,0.5751281922920845
476.00138886887726,0.5873523643211409
478.7869326185464,0.5990848753986214
481.60517486533354,0.6105621315416534
484.3890149934232,0.621465569070625
487.17200899273666,0.6318900621515918
489.9876719528438,0.6419083907488592
492.76896466880135,0.6512398648305844
495.5829066375736,0.6600683860161671
498.3624996297294,0.6681457080707643
501.14124842855017,0.6755456239966238
503.9526170105346,0.6823122703593323
506.7296684166504,0.6882556107892118
509.505876786945,0.6934356312781732
512.3146755106209,0.6978795578560061
515.0891888150436,0.7014648627651701
517.8962728359329,0.7042656425277293
520.6690926264382,0.7062079317524262
523.4410713071484,0.7073277112470296
526.2455913408958,0.7076263513215656
529.0158788274384,0.7071046405823199
531.785326356061,0.7057839820287295
534.5872859139781,0.7036523271655184
537.3550445639485,0.7007835671596734
540.1219644057746,0.6971847134793208
542.9213669927594,0.6928322189405609
545.686600267225,0.6878668088694779
548.4509958812232,0.6822816503300314
551.2478449957853,0.6760438552149534
554.0105563494981,0.6693505493098374
556.805701690384,0.6620930301470968
559.5667303225964,0.6544985942142277
562.3269232040038,0.6465398673768198
565.0862807140293,0.6382750057128401
567.8780333537688,0.6296598255387674
570.6357112050464,0.620960720052419
573.3925548263542,0.6121377582053666
576.1817644509756,0.6031452089529525
578.9369307080196,0.5942590103906851
581.6912638744288,0.5854329234612258
584.4779339570123,0.5766225440394604
587.2305920494691,0.5680963189014305
589.9824181885451,0.5598048085949937
592.7665521958479,0.5517077135834284
595.5167055471175,0.5440499895701544
598.2660280801974,0.5367822271571127
601.0145201715131,0.5299501630061445
603.7952814999189,0.523522679793033
606.5421038421155,0.5176919028377847
609.2880968749887,0.5124131493219627
612.0663301881068,0.5076642042705638
614.8106557483188,0.5035847782164141
617.554153129593,0.5001366424827984
620.2968227067649,0.49733705021105473
623.0716940541533,0.4951768109580405
625.8126991844802,0.4937150771782103
628.552877638358,0.49292484022448146
631.2922297897167,0.4928038826454221
634.0637452701958,0.49335557840088784
636.8014359932095,0.49455462637280617
639.5383015386324,0.49638676149878935
642.3073015987065,0.49886352424249597
645.0425079771339,0.5018996310970298
647.7768903008473,0.5054905708495241
650.5104489421938,0.5096019496735258
653.2431842732913,0.5141956328932663
656.0080062575216,0.5192932379222152
658.7390861754284,0.5247283340791732
661.4693439025905,0.5305117659414863
664.1987798102273,0.5365940340724087
666.9602641357596,0.5430014166335426
669.6880476268889,0.5495282211733203
672.4150104152941,0.5561958846904773
675.141152871307,0.5629505819976731
677.8993055782594,0.5698203626270271
680.6237986072192,0.5765879868529405
683.3474724178923,0.58328304925465
686.0703273797008,0.5898549286802517
688.7923638618704,0.5962549009784606
691.5463630106569,0.6025095007334875
694.2667537902307,0.6084256221609676
696.9863272009134,0.6140384178415754
699.705083611032,0.6193105038845694
702.4230233886883,0.6242081158985605
705.1728783546314,0.6287529300995491
707.8891761429404,0.6328107318210753
710.6046584062024,0.636416720820488
713.3193255116239,0.6395540019912656
716.033177826208,0.6422103398552069
718.7462157167283,0.6443782910808814
721.491111983778,0.6460725304617707
724.2025123243511,0.6472552187594356
726.9130993442814,0.6479570373512005
729.6228734094693,0.6481906279456717
732.3318348855792,0.6479737337697546
735.0399841380749,0.6473291911201761
737.7799351068679,0.6462700119538414
740.4864512328204,0.6448547021957983
743.1921562345997,0.6431109685373723
745.8970504767931,0.6410817556057258
748.6011343237551,0.6388150507078586
751.3044081396256,0.6363641254481486
754.0394271625555,0.6337565928802213
756.741072259374,0.6311215783011973
759.4419084205874,0.6285050160741569
762.1419360094733,0.6259989428133075
764.8411553890837,0.6237235911126519
767.539566922238,0.6218564186906802
770.2371709715626,0.6207065926950229
772.9339678994475,0.6209361145541463
775.6624349602753,0.6244213879827767
778.3576090181923,0.6368488573614073
781.0519770449282,0.6692950157726829
783.7455394020071,0.7071782923320121
786.4382964507422,0.696080704699227
789.1302485522319,0.6529759886668156
791.8213960673565,0.6268464003126167
794.5117393567816,0.6171681032579468
797.2012787809545,0.6138352513060337
799.922404211542,0.6129705256736493
802.6103273114531,0.6133429616623934
805.2974476305062,0.6144420241809425
807.9837655282827,0.6160191696055217
810.6692813641639,0.6179173231419502
813.3539954973021,0.6200179812420165
816.037908286642,0.622220216197787
818.7210200909067,0.6244319516007274
821.4033312686151,0.6265665330092678
824.0848421780756,0.628541786157624
826.7655531773598,0.6302803040182596
829.4777478409233,0.6317254134486958
832.1568504666102,0.632777162337909
834.8351542594137,0.6333979362919774
837.5126595765614,0.6335400711272193
840.1893667750774,0.6331660008845252
842.8652762117599,0.6322489610533968
845.5403882432074,0.6307734072914118
848.2147032257963,0.6287351260686581
850.8882215157028,0.6261410309794277
853.5609434688704,0.6230086544190512
856.2328694410462,0.6193653588685671
858.9039997877626,0.6152473049114892
861.5743348643446,0.6106982240202721
864.2438750258916,0.6057680528240954
866.9126206273068,0.6005114917980263
869.5805720232747,0.5949865549434216
872.2477295682729,0.589253177885017
874.9140936165568,0.5833719495571723
877.5796645221853,0.5774030265793608
880.2444426389957,0.5714052781861958
882.9084283206321,0.5654356909770549
885.5716219205024,0.5595490337204349
888.2340237918252,0.5537977395559396
890.8956342876045,0.5482319037541887
893.5564537606224,0.5428992207821822
896.2164825634645,0.5378446028372582
898.8757210485091,0.533109151912664
901.566194253428,0.5286776258713162
904.2238436478765,0.5246818148713753
906.88070378462,0.5210787233137015
909.5047788508018,0.5178969227728224
912.1600710251078,0.5150247896028465
914.8145749914547,0.512436792998166
917.4682911007549,0.5100300584165395
920.1212197037094,0.5076654243606172
922.7733611508156,0.5051726414938443
925.4247157923564,0.5023614307732227
928.0752839784072,0.499037861850879
930.725066058847,0.4950241846420641
933.3740623833291,0.49017913005833735
936.0222733013143,0.4844151618217286
938.669699162052,0.4777094508875368
941.3163403145809,0.47010646143851326
943.9621971077358,0.461711724424805
946.607269890148,0.4526781850511716
949.2515590102339,0.44318796032378066
951.8950648162136,0.4334330757881523
954.5377876560888,0.42359865535036056
957.1797278776648,0.413851272899199
959.8208858285398,0.40433410620601834
962.4612618561077,0.3951696378892751
965.1008563075484,0.3864704506822271
967.7396695298376,0.3783598233293046
970.3777018697583,0.3710074630440333
973.0149536738754,0.3646936581161718
975.65142528855,0.359927071873859
978.2871170599428,0.3576355284220603
980.8902880408277,0.3592803574697938
983.5244305486303,0.3666587737562841
986.1577942462391,0.3802137034540749
988.7903794789963,0.39632603534320615
991.4221865920408,0.40655701684923384
994.0532159303111,0.4023374136545451
996.6834678385349,0.3821704295742227
999.3129426612431,0.3530287981624965
1001.9416407427561,0.32415483172153936
1004.5695624271975,0.3008410138078135
1007.1967080584836,0.28366039447348557
1009.8230779803271,0.2710163136101973
1012.4170434801454,0.2613364005167488
1015.041872349022,0.2532800420845555
1017.665926534246,0.24634628601956782
1020.2892063787294,0.2401877751825005
1022.9117122251773,0.2346079282700934
1025.5334444160871,0.22948939269901486
1028.15440329376,0.22475808062331257
1030.7745892002931,0.22036466015417894
1033.3940024775802,0.21627458614345976
1035.9810981708106,0.2125068334134763
1038.598976513018,0.20895015577287213
1041.2160832463414,0.20563643176431606
1043.832418711885,0.20255257701447
1046.447983250535,0.19968732121909283
1049.0627772029802,0.19703068772445745
1051.676800909714,0.19457365196164864
1054.290054711022,0.19230791547386517
1056.8710678120515,0.1902497784990564
1059.48279208834,0.18834186630898772
1062.093747474777,0.18660352835157923
1064.7039343108554,0.18502829015349936
1067.313352935871,0.18361001478995992
1069.9220036889128,0.18234288377309743
1072.4984711957586,0.18123405050277738
1075.105596462614,0.18025130496808306
1077.7119548694973,0.17940410765133485
1080.317546754708,0.17868781544178855
1082.9223724563308,0.17809806619191926
1085.5264323122756,0.17763077420760714
1088.1297266602414,0.1772821255334107
1090.700904617097,0.17705071499099412
1093.3026781742628,0.17692764369744554
1095.90368723129,0.1769133865235809
1098.5039321250988,0.17700515869010008
1101.1034131923952,0.17720041791089516
1103.6708254619662,0.17749269224711678
1106.2687890782108,0.17788705188694715
1108.8659898728438,0.17837867880392394
1111.4624281817887,0.17896592873587547
1114.0581043407765,0.17964736511247284
1116.6217591897112,0.18041187335534023
1119.2159212276165,0.1812770678141601
1121.8093221175222,0.18223332703638423
1124.4019621943662,0.18327997691449147
1126.9938417929043,0.18441651932423223
1129.5537474636767,0.18562732203505483
1132.1441162613737,0.18694175527262538
1134.7337255797866,0.18834558875025817
1137.322575752878,0.18983897531163693
1139.9106671144218,0.1914222200823147
1142.466831825419,0.19307507375330943
1145.0534156966605,0.19483844200318573
1147.6392417524658,0.19669345279319597
1150.2243103258224,0.1986409854286169
1152.7774899721844,0.20065690419389137
1155.3610536951164,0.2027915173235616
1157.9438609293902,0.2050220896514329
1160.5259120072114,0.20735003657184678
1163.1072072606003,0.20977690386682685
1165.6566606759006,0.21227330943648856
1168.2364543720396,0.21490192539382327
1170.8154932346333,0.21763484569524655
1173.3937775949307,0.2204741250041141
1175.940257690534,0.22338577239404478
1178.5170431196166,0.22644308402255522
1181.0930750349762,0.2296136362260765
1183.6683537670833,0.2328999771651647
1186.2118657414467,0.23626303830520032
1188.7856481622657,0.2397876052142825
1191.3586783861065,0.24343628824295258
1193.9309567426717,0.2472121069326129
1196.471505782134,0.25107034404669476
1199.0422904412299,0.25510831102272763
1201.6123242170252,0.2592830923630465
1204.1506566845674,0.26354529675132865
1206.7191987172919,0.26800238515536284
1209.2869908489847,0.27260685941322593
1211.8540334080099,0.27736242845049597
1214.389411983815,0.28221277412953494
1216.9549654029506,0.2872800007517905
1219.5197702293917,0.2925097889091056
1222.0529389950316,0.29784004303519684
1224.61625662804,0.303404675653296
1227.1788266466283,0.3091436419602969
1229.7406493778217,0.31506087108308667
1232.2708732581305,0.32108566491994783
1234.8312113884967,0.32736875221794837
1237.3908032074723,0.3338414902209969
1239.9188240118929,0.34042599963899156
1242.4769331685857,0.3472862793441992
1245.0342969881858,0.3543464361562743
1247.560117592806,0.3615207354407737
1250.116000685306,0.3689868337493576
1252.6711394133126,0.37666082866751377
1255.194762689218,0.38444844429552233
1257.7484226219312,0.3925411223198609
1260.3013391610693,0.4008461625451901
1262.822767974354,0.40926009755366394
1265.3742076466478,0.41798792705571985
1267.924904894593,0.42692739062787977
1270.4441421063602,0.4359652925270166
1272.993364412563,0.4453195175174478
1275.5418452619597,0.4548776038613288
1278.0588937283464,0.4645163219777135
1280.6059015577484,0.4744652545122735
1283.1521688962057,0.48460136503089113
1285.6670314683906,0.49479147960838044
1288.2118277052796,0.5052751586459743
1290.755884415401,0.5159188869212467
1293.2685639396113,0.526580233987001
1295.811151463251,0.5375065433407902
1298.3530004226377,0.5485546280336951
1300.8634997401532,0.5595743001712952
1303.403881424827,0.5708181686039816
1305.9129317732186,0.58199841368077
1308.4518474532706,0.593369696527685
1310.9900261682633,0.604777143072991
1313.4969010306886,0.6160636091937511
1316.0336156473168,0.6274847513344642
1318.5695942569437,0.638883058165234
1321.074296461582,0.6501022457731129
1323.6088128757874,0.6613967378533561
1326.112071126503,0.672476105895648
1328.6451266095319,0.6835929107560729
1331.1774476773753,0.6945948301202628
1333.6785379692556,0.7053364194600786
1336.209400003383,0.7160661035373231
1338.7090494631484,0.7265136914428272
1341.2384537241596,0.7369240132160678
1343.76712515721,0.747160534423168
1346.2646113435585,0.7570969563313904
1348.7918268954818,0.7669713148031476
1351.2878753625337,0.7765431244191557
1353.8136362903097,0.7860447927700033
1356.338665972784,0.7953587060004159
1358.832555838333,0.8043772534704273
1361.3561327831994,0.8133222895262022
1363.8485880333137,0.8219803892065519
1366.3707134939323,0.8305647297056437
1368.8921092873425,0.8389700734333172
1371.3824105944368,0.847098791311345
1373.9023567847216,0.8551481412703633
1376.3912265713043,0.86292138695584
1378.9097244082113,0.8706031208352486
1381.3971639082774,0.8780008728967278
1383.914214640121,0.8852848446306864
1386.4002250862322,0.8922665684312296
1388.9158299598967,0.8991001282641216
1391.4307079939972,0.9056795696089358
1393.9145728441363,0.91190817287266
1396.4280068914595,0.9179126917809037
1398.9104457665926,0.9235210969937294
1401.422437070447,0.9288400948557174
1403.9034511981918,0.9337100606080727
1406.4140010004412,0.9382164119618077
1408.893591607004,0.9422169147553687
1411.4027011481012,0.9457747321975765
1413.8808694582804,0.9487707159156439
1416.388539977259,0.9512451165333873
1418.8954870924463,0.9531268546074446
1421.3715199489052,0.9543758358445732
1423.877029901585,0.9549973084900178
1426.3516435212223,0.954955256676832
1428.8557175468777,0.9542316604312127
1431.3289131495767,0.9528320203727699
1433.8315524822574,0.9507153142019804
1436.3033312865118,0.9479312023537404
1438.8045371588632,0.9444160907220023
1441.2749003817698,0.9402645493813603
1443.7746740250223,0.9353909919576805
1446.2436228822844,0.9299336370723443
1448.7419655262602,0.9237856563687511
1451.2095012321843,0.9171257413265514
1453.7064141053015,0.9098267981892223
1456.1725378728079,0.9021031880104815
1458.6680222020732,0.8938088276022441
1461.1327352426997,0.885187740298039
1463.6267922537227,0.8760764959061101
1466.090095777603,0.8667420578531551
1468.582726694589,0.8570056959900566
1471.044621910496,0.8471503601692246
1473.5358279562424,0.8369844660058969
1475.996316071556,0.8268001850400684
1478.4860984674815,0.8163958692088235
1480.9451806882025,0.8060666579502915
1483.4335406543069,0.795603880367982
1485.8912181850574,0.7853001121860529
1488.3781569399653,0.7749428301906733
1490.8344309839958,0.764817343806015
1493.2900079848114,0.7548312415353614
1495.7748215041174,0.7448963342484317
1498.2289968168734,0.7352801067036746
1500.7123921617567,0.7257739654836435
1503.1651669862695,0.7166299963101366
1505.647145370498,0.7076460890635123
1508.0985209052233,0.6990569401608107
1510.579083541168,0.6906692669980266
1513.02906098319,0.6826989640891464
1515.5082090818432,0.6749635440627656
1517.9567896268818,0.6676591639346281
1520.4046764008053,0.6606984417597784
1522.8817092402714,0.6540090312780282
1525.3282009046197,0.6477566154047438
1527.803822224585,0.6417916532312783
1530.2489199716838,0.6362592804957856
1532.7231309783128,0.6310245195979342
1535.16683599912,0.6262120804791644
1537.6098493197496,0.6217539650377072
1540.0819513813403,0.6175981867421918
1542.5235737559778,0.6138395261593443
1544.994268510025,0.6103795713833862
1547.4345011262485,0.6072938007847739
1549.8740435159852,0.6045294115216161
1552.3426338181598,0.6020480346894114
1554.7807882247253,0.5998977446922686
1557.2479742165997,0.5980128587574014
1559.6847418242032,0.5964244456501635
1562.1505247037494,0.5950778133418473
1564.5859066952507,0.5939883560654823
1567.0206005171167,0.5931200793205635
1569.4842852159818,0.5924464207068575
