Raman Shift (cm-1),Fitted Intensity
159.26151312198635,0.011311881288008781
162.17892251266312,0.011438633800899758
165.06070388440276,0.011566354045549471
167.97629817665074,0.011698194638689187
170.89098012548493,0.01183271081858302
173.77006778237046,0.011968334000501573
176.68293717714914,0.0121084169999385
179.59489550712533,0.012251431660200936
182.50594319967058,0.01239747113238189
185.38144153980102,0.012544838171728983
188.29068006676243,0.012697184326462359
191.19900923170644,0.012852858954201522
194.07182265961455,0.013010058096470479
196.97834519226308,0.01317268457080481
199.8839596359394,0.013338986550211408
202.75409191031576,0.013507043323881694
205.65790225025557,0.013681036459769372
208.5608057718964,0.01385910388026522
211.42826064439942,0.014039196827930821
214.32936258615155,0.014225807486796591
217.22955897789507,0.014416953445390502
220.09434019320543,0.01461044516297209
222.9927375242005,0.014811122660278498
225.89023057112718,0.01501687198222434
228.75234186693342,0.015225348412786175
231.64803836756255,0.01544178364192007
234.54283184768065,0.015663919731042295
237.4022769547155,0.015889240503205473
240.2952763983085,0.016123421414185934
243.18737408261222,0.016364046790814636
246.04415672466348,0.01660841055801569
248.93446287752522,0.01686269450597378
251.82386852998388,0.017124310137811193
254.67799242389083,0.01739034063044495
257.565609045334,0.017667550154177446
260.41796602711474,0.017949709944141412
263.3037952786035,0.01824402224928759
266.18872612093764,0.018547574008200375
269.0384305290536,0.018857043941467956
271.9215764941182,0.019180385319964927
274.8038253026716,0.019514466942271165
277.65088083558294,0.019855688118274564
280.5313472549242,0.0202128906933141
283.37664243438485,0.020578228881619007
286.2553281173605,0.020961231135275003
289.13311872473423,0.021358366946678864
291.97577117291803,0.0217655028261747
294.85178352428557,0.02219338245004763
297.6926797004962,0.022632821708938815
300.5669154435891,0.023095526529153938
303.44025818556474,0.023577544793489964
306.2785177554506,0.024074130675472965
309.150086361853,0.02459874455368938
311.98659372863403,0.02514052596384461
314.85638984211255,0.025714372422253256
317.69114662786524,0.02630864499311957
320.55917188903913,0.02693996785179731
323.42630704161274,0.027603968685435173
326.25843576130865,0.02829505584018957
329.1238025236089,0.02903320678140404
331.9541847135806,0.029804576180091278
334.8177847211591,0.030632091856086757
337.6464219965019,0.03150096798106498
340.5082568828984,0.032437921056633845
343.3351508567066,0.0334272560362922
346.1952222534492,0.034500663670927294
349.0203745368344,0.035641655660508066
351.8786840734356,0.036888584750679625
354.7361080202609,0.03824117501483225
357.55864557949826,0.03969647074915637
360.4143101115624,0.04130755718866433
363.23511000427607,0.04305703009690622
366.08901674608205,0.04501208557318085
368.90808057645336,0.04715491783031761
371.7602311504961,0.04957080999518099
374.57756052071636,0.05223974098061228
377.42795654749716,0.05526816854348988
380.2435530577968,0.05862843435711407
383.0921961558306,0.06244784007988689
385.90606140446107,0.06667939760539289
388.7529531902692,0.07146408790823926
391.56508877352826,0.07671584934224651
394.41023086164205,0.08257283613750539
397.2206383738594,0.08888421412523641
400.0640323768239,0.0957610336899326
402.8727134103756,0.10296507239298675
405.71436093876036,0.11055650287332122
408.5213170840616,0.11820589635998541
411.36121974646085,0.12591288887882626
414.16645259197685,0.13328739436807552
417.00461199500205,0.14028456618074533
419.8081231272481,0.14652197765738598
422.6107791472823,0.15189287032272902
425.446331879084,0.15628694483315753
428.2472685572284,0.15949494119727062
431.0810820327788,0.16155257248136243
433.88030095069917,0.16243876867099014
436.71237676973396,0.1622719805140164
439.5098795071426,0.1612120327548291
442.3402192674366,0.15944038592684537
445.1360074021177,0.15723509241485834
447.930943955329,0.15482728492192507
450.75868780728706,0.15243731526353815
453.5519121161087,0.1503575513530418
456.3779238904244,0.14875222200644425
459.1694375278166,0.14784028534134308
461.99371881542174,0.14775109058083494
464.7835233524238,0.1486057575709643
467.5724790401364,0.15049055163221714
470.39417274803054,0.15352156956013405
473.18142168360646,0.1576869454309529
476.00138886887726,0.16314027690540922
478.7869326185464,0.16980057156975345
481.60517486533354,0.1778770651469874
484.3890149934232,0.18722521696036623
487.17200899273666,0.19797882156999996
489.9876719528438,0.2103344256318731
492.76896466880135,0.2240284095834124
495.5829066375736,0.23940415337996265
498.3624996297294,0.25608332392809086
501.14124842855017,0.2741940813798953
503.9526170105346,0.2938905244983923
506.7296684166504,0.31456430116051926
509.505876786945,0.33624798625021357
512.3146755106209,0.358962147227824
515.0891888150436,0.3818500339301261
517.8962728359329,0.40508501112528367
520.6690926264382,0.42769389369515676
523.4410713071484,0.44950330564068347
526.2455913408958,0.47028303490626266
529.0158788274384,0.48906776013252756
531.785326356061,0.5056716955974815
534.5872859139781,0.519851145042518
537.3550445639485,0.530937162177861
540.1219644057746,0.5388723481284476
542.9213669927594,0.5435482476414888
545.686600267225,0.5448159402759096
548.4509958812232,0.542822039950605
551.2478449957853,0.5376607299593775
554.0105563494981,0.5297225318116873
556.805701690384,0.5191655409907848
559.5667303225964,0.5066411017211266
562.3269232040038,0.4924674721662229
565.0862807140293,0.47708608939690045
567.8780333537688,0.46073193748814417
570.6357112050464,0.44420438306214155
573.3925548263542,0.4276773666623774
576.1817644509756,0.41127253831067306
578.9369307080196,0.39564003094103317
581.6912638744288,0.38078025090789586
584.4779339570123,0.3666726409146312
587.2305920494691,0.35374290730344
589.9824181885451,0.3418601572650251
592.7665521958479,0.33090471529395094
595.5167055471175,0.3211111177108426
598.2660280801974,0.31229385835601753
601.0145201715131,0.304388699201194
603.7952814999189,0.2972417796742724
606.5421038421155,0.2909447949966536
609.2880968749887,0.2853299602254071
612.0663301881068,0.28026539974654
614.8106557483188,0.27580096252672853
617.554153129593,0.27180899129721786
620.2968227067649,0.26823238183593817
623.0716940541533,0.26498426887200754
625.8126991844802,0.26209806500783306
628.552877638358,0.25949581764024626
631.2922297897167,0.2571460650470889
634.0637452701958,0.25499816679669085
636.8014359932095,0.2530812529695802
639.5383015386324,0.2513506338896001
642.3073015987065,0.24977418493619905
645.0425079771339,0.24837803935525835
647.7768903008473,0.24713384852233863
650.5104489421938,0.24603548710546927
653.2431842732913,0.2450791090573662
656.0080062575216,0.24425408723524553
658.7390861754284,0.24358062520378848
661.4693439025905,0.24305089377775568
664.1987798102273,0.24267015296681607
666.9602641357596,0.24244461977913956
669.6880476268889,0.24239067821045518
672.4150104152941,0.24251897378879064
675.141152871307,0.242847662625027
677.8993055782594,0.2434074637881013
680.6237986072192,0.24421311111196373
683.3474724178923,0.24530365438955512
686.0703273797008,0.24671977526076946
688.7923638618704,0.24851011824772729
691.5463630106569,0.25076214771407157
694.2667537902307,0.2534912065353597
696.9863272009134,0.25680147575190543
699.705083611032,0.2607861178221062
702.4230233886883,0.26555250017845733
705.1728783546314,0.27129739089273563
707.8891761429404,0.2780231422893342
710.6046584062024,0.2859449037648037
713.3193255116239,0.295227899970845
716.033177826208,0.306046582142399
718.7462157167283,0.3185790442821198
721.491111983778,0.3331849346049434
724.2025123243511,0.3496766608326531
726.9130993442814,0.36834630648765
729.6228734094693,0.3892794786694845
732.3318348855792,0.41249995812711926
735.0399841380749,0.4379515557911251
737.7799351068679,0.465824269543451
740.4864512328204,0.495186114311374
743.1921562345997,0.5259694450874747
745.8970504767931,0.5576638480387786
748.6011343237551,0.5896430364775938
751.3044081396256,0.6211826575402412
754.0394271625555,0.6518436789684149
756.741072259374,0.6800658390406346
759.4419084205874,0.7054235880205018
762.1419360094733,0.7271991553596869
764.8411553890837,0.7448249753148061
767.539566922238,0.7579643359623327
770.2371709715626,0.766618141731729
772.9339678994475,0.7712990781093648
775.6624349602753,0.7734127733754885
778.3576090181923,0.7761122602212602
781.0519770449282,0.7866041973490481
783.7455394020071,0.8190587114317979
786.4382964507422,0.8879174818240382
789.1302485522319,0.97276685787497
791.8213960673565,0.9975115138522681
794.5117393567816,0.9136980581501136
797.2012787809545,0.7756624805249215
799.922404211542,0.6583702375590319
802.6103273114531,0.5838498595446556
805.2974476305062,0.536797607721777
807.9837655282827,0.5046041768880579
810.6692813641639,0.48124109855945346
813.3539954973021,0.46416270060421094
816.037908286642,0.452200481452456
818.7210200909067,0.44471728654256776
821.4033312686151,0.44128406635549955
824.0848421780756,0.4415481494786236
826.7655531773598,0.4451756281524413
829.4777478409233,0.4519217885829799
832.1568504666102,0.461259815490728
834.8351542594137,0.47286340260460813
837.5126595765614,0.4863152869627735
840.1893667750774,0.5011715032798878
842.8652762117599,0.5169656930162351
845.5403882432074,0.533216328589447
848.2147032257963,0.5494368591214351
850.8882215157028,0.5651486232331958
853.5609434688704,0.5798961571527267
856.2328694410462,0.5932643072897216
858.9039997877626,0.6048963725993465
861.5743348643446,0.6145123742999327
864.2438750258916,0.6219264807386838
866.9126206273068,0.627062583278103
869.5805720232747,0.6299669820734357
872.2477295682729,0.6308170386986189
874.9140936165568,0.6299244263928598
877.5796645221853,0.6277312319635252
880.2444426389957,0.6247966894961369
882.9084283206321,0.6217719373250009
885.5716219205024,0.6193602241792661
888.2340237918252,0.6182609093106735
890.8956342876045,0.619097863909487
893.5564537606224,0.6223367199167681
896.2164825634645,0.6282005610869105
898.8757210485091,0.6365991431148736
901.566194253428,0.6472272189922164
904.2238436478765,0.6590444209130816
906.88070378462,0.6711344573858284
909.5047788508018,0.6822520256721445
912.1600710251078,0.6917027608136782
914.8145749914547,0.698790052328101
917.4682911007549,0.7036659781201714
920.1212197037094,0.7073988652374086
922.7733611508156,0.7119950554525195
925.4247157923564,0.7200806112205632
928.0752839784072,0.7341119046946671
930.725066058847,0.7551362686951182
933.3740623833291,0.7814386152047763
936.0222733013143,0.8077612255651215
938.669699162052,0.8258644961720298
941.3163403145809,0.8267202858604499
943.9621971077358,0.8036869470556529
946.607269890148,0.755205960051636
949.2515590102339,0.6855922170824904
951.8950648162136,0.6034987303429956
954.5377876560888,0.5189448520062578
957.1797278776648,0.4404775486434883
959.8208858285398,0.3737573612924502
962.4612618561077,0.3222977194687662
965.1008563075484,0.29210069875413364
967.7396695298376,0.2978929876456609
970.3777018697583,0.31221834496234285
973.0149536738754,0.25906379000181035
975.65142528855,0.196803730785152
978.2871170599428,0.16544653728105405
980.8902880408277,0.14834397393246165
983.5244305486303,0.1362653250268121
986.1577942462391,0.12686230686311656
988.7903794789963,0.11914914268029887
991.4221865920408,0.11263561454310897
994.0532159303111,0.10703181586322388
996.6834678385349,0.1021468586116521
999.3129426612431,0.09784602972964328
1001.9416407427561,0.09402967930381126
1004.5695624271975,0.09062157414615182
1007.1967080584836,0.08756190813374178
1009.8230779803271,0.08480283183860807
1012.4170434801454,0.08233411426358705
1015.041872349022,0.08006379561528054
1017.665926534246,0.07799675393781977
1020.2892063787294,0.07611051069359709
1022.9117122251773,0.07438600731010973
1025.5334444160871,0.07280696454680731
1028.15440329376,0.07135938501328705
1030.7745892002931,0.0700311618289438
1033.3940024775802,0.06881176725497962
1035.9810981708106,0.06770493348410553
1038.598976513018,0.06667566647559274
1041.2160832463414,0.0657309237493235
1043.832418711885,0.06486440616727679
1046.447983250535,0.06407052549192571
1049.0627772029802,0.0633443094494327
1051.676800909714,0.06268132201155364
1054.290054711022,0.06207759609408764
1056.8710678120515,0.061535860486811436
1059.48279208834,0.06103974002683445
1062.093747474777,0.060593295974362665
1064.7039343108554,0.0601939401326568
1067.313352935871,0.05983933938905399
1069.9220036889128,0.05952738889670757
1072.4984711957586,0.05925922065796205
1075.105596462614,0.05902659492114369
1077.7119548694973,0.05883147376400347
1080.317546754708,0.05867245852026609
1082.9223724563308,0.05854828839240181
1085.5264323122756,0.05845782841120891
1088.1297266602414,0.05840005881530686
1090.700904617097,0.05837419303099162
1093.3026781742628,0.05837879138999086
1095.90368723129,0.05841363174405809
1098.5039321250988,0.058478070472588684
1101.1034131923952,0.05857154183795847
1103.6708254619662,0.058691914695489664
1106.2687890782108,0.05884170393990017
1108.8659898728438,0.059019251030607484
1111.4624281817887,0.059224254809726255
1114.0581043407765,0.0594564713328765
1116.6217591897112,0.05971242739228079
1119.2159212276165,0.059998229088698216
1121.8093221175222,0.06031082861534466
1124.4019621943662,0.06065018467327475
1126.9938417929043,0.06101630176275241
1129.5537474636767,0.06140433469697716
1132.1441162613737,0.06182383816829736
1134.7337255797866,0.06227037456652987
1137.322575752878,0.06274411744357472
1139.9106671144218,0.06324528016013567
1142.466831825419,0.06376757782042403
1145.0534156966605,0.06432403706821122
1147.6392417524658,0.06490878387710734
1150.2243103258224,0.06552218388703525
1152.7774899721844,0.06615672472234685
1155.3610536951164,0.06682831778219658
1157.9438609293902,0.06752987608043956
1160.5259120072114,0.06826191135409718
1163.1072072606003,0.06902497145043107
1165.6566606759006,0.06980987533088691
1168.2364543720396,0.07063638021243723
1170.8154932346333,0.07149576059088006
1173.3937775949307,0.07238870691203886
1175.940257690534,0.0733045663892858
1178.5170431196166,0.07426643018110408
1181.0930750349762,0.07526413269631614
1183.6683537670833,0.07629850383161182
1186.2118657414467,0.07735726614466731
1188.7856481622657,0.07846713133196163
1191.3586783861065,0.07961634525438821
1193.9309567426717,0.08080586955936095
1196.471505782134,0.08202161763374012
1199.0422904412299,0.08329425340581129
1201.6123242170252,0.08461025101817343
1204.1506566845674,0.08595402656515698
1206.7191987172919,0.08735944351291423
1209.2869908489847,0.08881150493111328
1211.8540334080099,0.09031135004054884
1214.389411983815,0.09184117724529772
1216.9549654029506,0.09343945311586516
1219.5197702293917,0.0950889903661598
1222.0529389950316,0.09677014034681304
1224.61625662804,0.0985250647235227
1227.1788266466283,0.1003347391841543
1229.7406493778217,0.10220030546632851
1232.2708732581305,0.10409937256227442
1234.8312113884967,0.10607933024669
1237.3908032074723,0.10811840275874277
1239.9188240118929,0.1101919207486842
1242.4769331685857,0.11235136589768908
1245.0342969881858,0.11457265413600642
1247.560117592806,0.11682864017986579
1250.116000685306,0.11917498201333462
1252.6711394133126,0.12158506511101042
1255.194762689218,0.12402907817700659
1257.7484226219312,0.1265668563840555
1260.3013391610693,0.12916903818923128
1262.822767974354,0.13180298364579307
1265.3742076466478,0.13453260062815214
1267.924904894593,0.137325593897833
1270.4441421063602,0.14014638927088455
1272.993364412563,0.1430627413314719
1275.5418452619597,0.1460393006570125
1278.0588937283464,0.14903755024560306
1280.6059015577484,0.15212873921684994
1283.1521688962057,0.15527445774735044
1285.6670314683906,0.15843338185870348
1288.2118277052796,0.16167978856439727
1290.755884415401,0.16497236995297185
1293.2685639396113,0.16826732112107357
1295.811151463251,0.17164139482019425
1298.3530004226377,0.1750507623904179
1300.8634997401532,0.17844968132155978
1303.403881424827,0.181916781624208
1305.9129317732186,0.1853641639757904
1308.4518474532706,0.18887136864198759
1310.9900261682633,0.19239181656987162
1313.4969010306886,0.19587826053909743
1316.0336156473168,0.19941109656852174
1318.5695942569437,0.20294321552364777
1321.074296461582,0.20642763109513082
1323.6088128757874,0.20994495329978516
1326.112071126503,0.21340626609579985
1328.6451266095319,0.21689192531766294
1331.1774476773753,0.2203556902644644
1333.6785379692556,0.22375253250730073
1336.209400003383,0.2271617108408064
1338.7090494631484,0.2304976542919775
1341.2384537241596,0.23383831964588955
1343.76712515721,0.23713939442564444
1346.2646113435585,0.24035842086768702
1348.7918268954818,0.24357035184087417
1351.2878753625337,0.24669409516323
1353.8136362903097,0.24980180790823153
1356.338665972784,0.2528506553549116
1358.832555838333,0.255800210746274
1361.3561327831994,0.2587171121007577
1363.8485880333137,0.26152532212738705
1366.3707134939323,0.26428691099808727
1368.8921092873425,0.266960078287265
1371.3824105944368,0.26950668531791855
1373.9023567847216,0.2719806597520535
1376.3912265713043,0.2743138251680554
1378.9097244082113,0.2765539440344108
1381.3971639082774,0.27863770365602164
1383.914214640121,0.2806062230850192
1386.4002250862322,0.2824024468775835
1388.9158299598967,0.28406049717412984
1391.4307079939972,0.2855480219999716
1393.9145728441363,0.2868413130633951
1396.4280068914595,0.28796360088417067
1398.9104457665926,0.28888048943913436
1401.422437070447,0.2896078945661788
1403.9034511981918,0.2901231226791699
1406.4140010004412,0.2904348418239099
1408.893591607004,0.29053316268378915
1411.4027011481012,0.29041965114544516
1413.8808694582804,0.29009785306333447
1416.388539977259,0.2895624376783982
1418.8954870924463,0.28882030473139364
1421.3715199489052,0.28788993265968266
1423.877029901585,0.2867561237593956
1426.3516435212223,0.2854550562439991
1428.8557175468777,0.2839653842573472
1431.3289131495767,0.2823344459454222
1433.8315524822574,0.28053516998628414
1436.3033312865118,0.2786243057257345
1438.8045371588632,0.27656957916859626
1441.2749003817698,0.2744351318461889
1443.7746740250223,0.27218412526420555
1446.2436228822844,0.2698859513488738
1448.7419655262602,0.2674999644793417
1451.2095012321843,0.26509867733431297
1453.7064141053015,0.26263850328484295
1456.1725378728079,0.2601930670527122
1458.6680222020732,0.2577167919069625
1461.1327352426997,0.25528260300938843
1463.6267922537227,0.2528439353398669
1466.090095777603,0.25047144346498257
1468.582726694589,0.24811858801094283
1471.044621910496,0.24585243765320272
1473.5358279562424,0.24362746606558866
1475.996316071556,0.24150609014544844
1478.4860984674815,0.23944472294536917
1480.9451806882025,0.2375002925792688
1483.4335406543069,0.23563198877631197
1485.8912181850574,0.233890614592151
1488.3781569399653,0.23223886419771805
1490.8344309839958,0.23072094948874403
1493.2900079848114,0.22932002283122546
1495.7748215041174,0.22802433302952524
1498.2289968168734,0.22686765408736326
1500.7123921617567,0.22582378625818667
1503.1651669862695,0.22491930961172327
1505.647145370498,0.22413306854605572
1508.0985209052233,0.22348437580746042
1510.579083541168,0.22295726083684447
1513.02906098319,0.2225637709296104
1515.5082090818432,0.22229312960126707
1517.9567896268818,0.2221501901689854
1520.4046764008053,0.22212877091098732
1522.8817092402714,0.2222281073507632
1525.3282009046197,0.22244257102379555
1527.803822224585,0.2227735476716545
1530.2489199716838,0.2232087133997652
1532.7231309783128,0.22375367005461427
1535.16683599912,0.224389752985363
1537.6098493197496,0.22511682201039004
1540.0819513813403,0.22593854415282724
1542.5235737559778,0.22682768115300972
1544.994268510025,0.2277976866446023
1547.4345011262485,0.22881641693412924
1549.8740435159852,0.2298858120643349
1552.3426338181598,0.23100962031281022
1554.7807882247253,0.2321500167504957
