Raman Shift (cm-1),Fitted Intensity
159.26151312198635,0.01293207422291152
162.17892251266312,0.013085114027860811
165.06070388440276,0.013239537532256096
167.97629817665074,0.01339917101559716
170.89098012548493,0.0135622846339822
173.77006778237046,0.013726988253121786
176.68293717714914,0.013897370906231273
179.59489550712533,0.014071596991790048
182.50594319967058,0.014249799705783654
185.38144153980102,0.014429923436965527
188.29068006676243,0.014616453488511394
191.19900923170644,0.014807398124939176
194.07182265961455,0.015000563551188851
196.97834519226308,0.015200772283469405
199.8839596359394,0.015405902951038546
202.75409191031576,0.015613609655878902
205.65790225025557,0.015829093202677676
208.5608057718964,0.016050090379217646
211.42826064439942,0.01627408742798903
214.32936258615155,0.0165067119159001
217.22955897789507,0.016745545222880347
220.09434019320543,0.01698788786638912
222.9927375242005,0.017239851904393113
225.89023057112718,0.01749884828513138
228.75234186693342,0.017761971528500436
231.64803836756255,0.01803588764324747
234.54283184768065,0.018317820620719436
237.4022769547155,0.018604635993829093
240.2952763983085,0.01890363827057414
243.18737408261222,0.019211846527045204
246.04415672466348,0.01952587131501106
248.93446287752522,0.01985375991992811
251.82386852998388,0.020192307398543996
254.67799242389083,0.020537840129022968
257.565609045334,0.020899278731875325
260.41796602711474,0.02126864762035888
263.3037952786035,0.021655537886979992
266.18872612093764,0.022056328551047666
269.0384305290536,0.022466799646355888
271.9215764941182,0.022897718971185158
274.8038253026716,0.023345193074387233
277.65088083558294,0.023804626652035487
280.5313472549242,0.024288224528530848
283.37664243438485,0.024785693844657435
286.2553281173605,0.02531038313998611
289.13311872473423,0.0258579323690165
291.97577117291803,0.02642304798819931
294.85178352428557,0.02702117336182011
297.6926797004962,0.027640060095551765
300.5669154435891,0.028296872745601772
303.44025818556474,0.02898686458258647
306.2785177554506,0.029704008478781418
309.150086361853,0.030468740250616824
311.98659372863403,0.03126634731856933
314.85638984211255,0.032120058673854375
317.69114662786524,0.03301401494925009
320.55917188903913,0.033974908600456204
323.42630704161274,0.034998201434678536
326.25843576130865,0.0360771984541297
329.1238025236089,0.0372455149420061
331.9541847135806,0.03848387999342997
334.8177847211591,0.039832026600063394
337.6464219965019,0.04126892367635884
340.5082568828984,0.04284193302734684
343.3351508567066,0.044527725917525456
346.1952222534492,0.046382975920411684
349.0203745368344,0.04838101240529706
351.8786840734356,0.05058944283892882
354.7361080202609,0.053006410153067875
357.55864557949826,0.05562132667700617
360.4143101115624,0.0585200329599915
363.23511000427607,0.06165591257523241
366.08901674608205,0.06512622864917444
368.90808057645336,0.06886743322165889
371.7602311504961,0.07298523593912301
374.57756052071636,0.07739144321292332
377.42795654749716,0.08219480390646716
380.2435530577968,0.08727428269705241
383.0921961558306,0.09273432150824457
385.90606140446107,0.09841471906682643
388.7529531902692,0.10440783722983758
391.56508877352826,0.11051312501590294
394.41023086164205,0.11680501334017658
397.2206383738594,0.12304979613564965
400.0640323768239,0.12930248929879204
402.8727134103756,0.13531351633802538
405.71436093876036,0.14112277812747093
408.5213170840616,0.14649093042818856
411.36121974646085,0.1514522569108202
414.16645259197685,0.15580774739343917
417.00461199500205,0.15959798390061658
419.8081231272481,0.1626909962555379
422.6107791472823,0.1651187463425625
425.446331879084,0.16690766902746093
428.2472685572284,0.1680507732927668
431.0810820327788,0.16863748054202876
433.88030095069917,0.16873743366148053
436.71237676973396,0.16845733440711827
439.5098795071426,0.16792107195115757
442.3402192674366,0.16724471166922816
445.1360074021177,0.1665761764807919
447.930943955329,0.1660388223397232
450.75868780728706,0.16575884246014055
453.5519121161087,0.16586521805734278
456.3779238904244,0.16647622230371778
459.1694375278166,0.167681741967355
461.99371881542174,0.16960725929482368
464.7835233524238,0.17229298362426207
467.5724790401364,0.17583513139773338
470.39417274803054,0.18036513958788045
473.18142168360646,0.1858429515173554
476.00138886887726,0.19246612169939695
478.7869326185464,0.20013894961852907
481.60517486533354,0.20910672520541274
484.3890149934232,0.21921182115394056
487.17200899273666,0.2306034559920601
489.9876719528438,0.24348385908993925
492.76896466880135,0.25757388005896187
495.5829066375736,0.2732213487263674
498.3624996297294,0.2900359954547716
501.14124842855017,0.30814578370063833
503.9526170105346,0.3277009497313819
506.7296684166504,0.3480995770056043
509.505876786945,0.36938210412968236
512.3146755106209,0.39157759412813514
515.0891888150436,0.41386411895733094
517.8962728359329,0.4364304083959953
520.6690926264382,0.4583547092909193
523.4410713071484,0.4794957982999367
526.2455913408958,0.4996591531979391
529.0158788274384,0.5179373088493798
531.785326356061,0.5341769598227715
534.5872859139781,0.5481683262663477
537.3550445639485,0.5592741678848311
540.1219644057746,0.5674503544465894
542.9213669927594,0.5726001036654088
545.686600267225,0.5745548692267614
548.4509958812232,0.5734442791383771
551.2478449957853,0.5693425763965424
554.0105563494981,0.5625707505308177
556.805701690384,0.5532616581556802
559.5667303225964,0.5419791460799486
562.3269232040038,0.5289967476913361
565.0862807140293,0.5146976820745817
567.8780333537688,0.4992725913581893
570.6357112050464,0.48345058953009423
573.3925548263542,0.46737866705194275
576.1817644509756,0.4511495398529389
578.9369307080196,0.4353903039483778
581.6912638744288,0.42009717014062886
584.4779339570123,0.4052409353538248
587.2305920494691,0.3912765094249203
589.9824181885451,0.37808510766440984
592.7665521958479,0.3655525314017909
595.5167055471175,0.35398172210137724
598.2660280801974,0.3432037676843885
601.0145201715131,0.33319029438250286
603.7952814999189,0.3237966883835248
606.5421038421155,0.31520455708545775
609.2880968749887,0.30725464224700977
612.0663301881068,0.29981951439344684
614.8106557483188,0.2930357077266776
617.554153129593,0.28677424369604265
620.2968227067649,0.2810017037175905
623.0716940541533,0.2756268850975483
625.8126991844802,0.27075097824046
628.552877638358,0.2662837803485229
631.2922297897167,0.2622043569191701
634.0637452701958,0.2584514077379068
636.8014359932095,0.2550971327549891
639.5383015386324,0.2520791532199947
642.3073015987065,0.24935260311637147
645.0425079771339,0.24696904860609004
647.7768903008473,0.24488190467483667
650.5104489421938,0.24307996824572964
653.2431842732913,0.24155313845266754
656.0080062575216,0.24027898332043618
658.7390861754284,0.23928043380579136
661.4693439025905,0.2385352004494067
664.1987798102273,0.23803989121668306
666.9602641357596,0.23779222560383434
669.6880476268889,0.23780033340396953
672.4150104152941,0.23806557159401398
675.141152871307,0.2385979427297508
677.8993055782594,0.2394239592156558
680.6237986072192,0.24054480827703534
683.3474724178923,0.24199590927231435
686.0703273797008,0.24381227676753475
688.7923638618704,0.2460378188967235
691.5463630106569,0.24876216645760635
694.2667537902307,0.25198709018958837
696.9863272009134,0.25582152638560873
699.705083611032,0.2603599260428588
702.4230233886883,0.2657133711368898
705.1728783546314,0.2720931468209488
707.8891761429404,0.27949687332833495
710.6046584062024,0.2881615244818828
713.3193255116239,0.2982716593956187
716.033177826208,0.3100263024837149
718.7462157167283,0.3236334773547709
721.491111983778,0.3395039993606606
724.2025123243511,0.35745940780691643
726.9130993442814,0.377846562127898
729.6228734094693,0.4007909694403768
732.3318348855792,0.42635145922863427
735.0399841380749,0.45449728182856003
737.7799351068679,0.48546805197409826
740.4864512328204,0.5182481855948449
743.1921562345997,0.5527701101021327
745.8970504767931,0.5884610757096564
748.6011343237551,0.6246041063281641
751.3044081396256,0.6603582216298116
754.0394271625555,0.69519631273362
756.741072259374,0.7273097816416988
759.4419084205874,0.7561781880639903
762.1419360094733,0.7809554334332053
764.8411553890837,0.8009797858837941
767.539566922238,0.8158738219061773
770.2371709715626,0.8256756333073538
772.9339678994475,0.8310526546739735
775.6624349602753,0.8337730628259894
778.3576090181923,0.8376857861994128
781.0519770449282,0.8509795531481963
783.7455394020071,0.887178147218152
786.4382964507422,0.9543403103770107
789.1302485522319,1.0251417663205853
791.8213960673565,1.0340160086213683
794.5117393567816,0.9491524757304771
797.2012787809545,0.818598983570779
799.922404211542,0.7044890849331984
802.6103273114531,0.6288517111714472
805.2974476305062,0.5803405460046445
807.9837655282827,0.547585127715182
810.6692813641639,0.5244370194086161
813.3539954973021,0.5080755044382314
816.037908286642,0.49711670887213366
818.7210200909067,0.4907560292238902
821.4033312686151,0.4884274673352521
824.0848421780756,0.48966505633466295
826.7655531773598,0.4940437225266472
829.4777478409233,0.501253818598998
832.1568504666102,0.5107124470073463
834.8351542594137,0.5220809409386998
837.5126595765614,0.5349472609051464
840.1893667750774,0.5488969822356922
842.8652762117599,0.5635157606411519
845.5403882432074,0.578393363969039
848.2147032257963,0.593129213846561
850.8882215157028,0.607339345398502
853.5609434688704,0.6206646166791837
856.2328694410462,0.6327799227241311
858.9039997877626,0.6434041161186734
861.5743348643446,0.6523103194089629
864.2438750258916,0.6593363371526292
866.9126206273068,0.6643949269649265
869.5805720232747,0.6674837412857425
872.2477295682729,0.6686947502102939
874.9140936165568,0.6682228131645617
877.5796645221853,0.6663726664513356
880.2444426389957,0.6635628154317138
882.9084283206321,0.660323610534885
885.5716219205024,0.6572852724885622
888.2340237918252,0.6551502621827043
890.8956342876045,0.6546440245883032
893.5564537606224,0.6564399647590689
896.2164825634645,0.6610596784891638
898.8757210485091,0.6687583548107093
901.566194253428,0.6795613492816989
904.2238436478765,0.6926400311096551
906.88070378462,0.7071016354780479
909.5047788508018,0.7214548190951368
912.1600710251078,0.7346675031869195
914.8145749914547,0.7454428156652619
917.4682911007549,0.7533509541737367
920.1212197037094,0.7590234142820933
922.7733611508156,0.7643301647942911
925.4247157923564,0.7721632616715935
928.0752839784072,0.785639266026967
930.725066058847,0.8066891953807611
933.3740623833291,0.8343649382165097
936.0222733013143,0.8636457570361121
938.669699162052,0.8857245992044961
941.3163403145809,0.8902911770037689
943.9621971077358,0.8692126579756818
946.607269890148,0.8199208776383698
949.2515590102339,0.7466852652144282
951.8950648162136,0.659091211874719
954.5377876560888,0.5686994690457707
957.1797278776648,0.48586120500428104
959.8208858285398,0.41853066042309955
962.4612618561077,0.37367564334973646
965.1008563075484,0.35653581759108827
967.7396695298376,0.3559323449392435
970.3777018697583,0.3367968838790616
973.0149536738754,0.28561131124881534
975.65142528855,0.23094934063000366
978.2871170599428,0.1934911725638682
980.8902880408277,0.17072382553865972
983.5244305486303,0.1552476978180273
986.1577942462391,0.14371045608935148
988.7903794789963,0.13450510895346787
991.4221865920408,0.12686189222121247
994.0532159303111,0.1203541311277443
996.6834678385349,0.11471695078600941
999.3129426612431,0.10977220051003746
1001.9416407427561,0.10539300044717413
1004.5695624271975,0.10148510646261792
1007.1967080584836,0.09797625241280625
1009.8230779803271,0.09480963399523631
1012.4170434801454,0.09197267178850031
1015.041872349022,0.08935938804537581
1017.665926534246,0.08697536266041306
1020.2892063787294,0.0847949277600207
1022.9117122251773,0.08279642642746986
1025.5334444160871,0.08096142783310026
1028.15440329376,0.07927412744788732
1030.7745892002931,0.07772088159312492
1033.3940024775802,0.07628984134254531
1035.9810981708106,0.07498592606561486
1038.598976513018,0.07376834049149075
1041.2160832463414,0.07264563084479053
1043.832418711885,0.071610711394622
1046.447983250535,0.07065729172057565
1049.0627772029802,0.06977976944553405
1051.676800909714,0.06897314047333554
1054.290054711022,0.06823292342226758
1056.8710678120515,0.06756290558869167
1059.48279208834,0.06694316078299095
1062.093747474777,0.06637896371840349
1064.7039343108554,0.0658673680628607
1067.313352935871,0.06540571123770553
1069.9220036889128,0.06499158454479129
1072.4984711957586,0.06462698840565162
1075.105596462614,0.06430107343547777
1077.7119548694973,0.0640167630370879
1080.317546754708,0.06377243362462781
1082.9223724563308,0.06356661478788529
1085.5264323122756,0.06339797585596631
1088.1297266602414,0.06326531403389953
1090.700904617097,0.06316851815904871
1093.3026781742628,0.06310425919990698
1095.90368723129,0.06307304709303799
1098.5039321250988,0.06307409573098237
1101.1034131923952,0.06310670503013587
1103.6708254619662,0.06316930751737276
1106.2687890782108,0.06326289023142287
1108.8659898728438,0.06338639964752782
1111.4624281817887,0.06353942672790687
1114.0581043407765,0.06372162503889581
1116.6217591897112,0.06392999336300247
1119.2159212276165,0.06416938511515333
1121.8093221175222,0.06443725514067813
1124.4019621943662,0.06473347737137061
1126.9938417929043,0.06505797519078402
1129.5537474636767,0.06540630155660754
1132.1441162613737,0.06578696886082072
1134.7337255797866,0.06619596054929239
1137.322575752878,0.06663338123801674
1139.9106671144218,0.06709937791768893
1142.466831825419,0.06758800600682313
1145.0534156966605,0.06811140986089717
1147.6392417524658,0.0686640729640115
1150.2243103258224,0.06924630346893512
1152.7774899721844,0.06985089379188003
1155.3610536951164,0.07049297178474623
1157.9438609293902,0.07116576907570529
1160.5259120072114,0.07186974757916773
1163.1072072606003,0.0726054072082483
1165.6566606759006,0.07336384022958381
1168.2364543720396,0.07416411463031504
1170.8154932346333,0.07499778932968124
1173.3937775949307,0.07586551498661379
1175.940257690534,0.07675689732349242
1178.5170431196166,0.07769439593152724
1181.0930750349762,0.07866811418924177
1183.6683537670833,0.07967885288655913
1186.2118657414467,0.08071458780230115
1188.7856481622657,0.08180144721830632
1191.3586783861065,0.08292794191916716
1193.9309567426717,0.0840950204437666
1196.471505782134,0.0852888540223351
1199.0422904412299,0.08653957019214223
1201.6123242170252,0.08783391667639834
1204.1506566845674,0.08915657757124182
1206.7191987172919,0.09054092183720754
1209.2869908489847,0.09197224192788703
1211.8540334080099,0.09345171793624452
1214.389411983815,0.09496183867223709
1216.9549654029506,0.09654065568416798
1219.5197702293917,0.0981713059610332
1222.0529389950316,0.09983445402631455
1224.61625662804,0.10157193809271745
1227.1788266466283,0.10336509518988242
1229.7406493778217,0.10521522781757749
1232.2708732581305,0.10710029370521655
1234.8312113884967,0.1090675536812525
1237.3908032074723,0.11109565656912906
1239.9188240118929,0.11316030797900645
1242.4769331685857,0.11531308770464299
1245.0342969881858,0.11753039083790198
1247.560117592806,0.11978546584635318
1250.116000685306,0.12213439494538104
1252.6711394133126,0.12455109682921982
1255.194762689218,0.1270061539746765
1257.7484226219312,0.12956028241567477
1260.3013391610693,0.13218469513674294
1262.822767974354,0.13484710877618733
1265.3742076466478,0.13761293329481664
1267.924904894593,0.14045045519373206
1270.4441421063602,0.1433243540206715
1272.993364412563,0.14630470497327486
1275.5418452619597,0.149356679205701
1278.0588937283464,0.15244180354341455
1280.6059015577484,0.15563468834549013
1283.1521688962057,0.15889726409526767
1285.6670314683906,0.16218787774408266
1288.2118277052796,0.16558543828555058
1290.755884415401,0.16904861024932785
1293.2685639396113,0.1725326551438246
1295.811151463251,0.17612043992530646
1298.3530004226377,0.17976747057313663
1300.8634997401532,0.1834261618275912
1303.403881424827,0.1871828982441631
1305.9129317732186,0.1909441213163288
1308.4518474532706,0.19479826155001967
1310.9900261682633,0.19869619503590638
1313.4969010306886,0.20258649472957638
1316.0336156473168,0.20656013285323904
1318.5695942569437,0.2105657610506487
1321.074296461582,0.21455031551701167
1323.6088128757874,0.21860652028842678
1326.112071126503,0.22263206371316982
1328.6451266095319,0.2267202860754217
1331.1774476773753,0.23081708724265187
1333.6785379692556,0.23486771738525353
1336.209400003383,0.23896539914088807
1338.7090494631484,0.243005604047408
1341.2384537241596,0.24708063657017595
1343.76712515721,0.25113445888535585
1346.2646113435585,0.255111607554648
1348.7918268954818,0.2591014963717695
1351.2878753625337,0.26299997946166265
1353.8136362903097,0.26689342339412564
1356.338665972784,0.27072457614821316
1358.832555838333,0.274438554768379
1361.3561327831994,0.27811534329025983
1363.8485880333137,0.2816553073825425
1366.3707134939323,0.2851329930907103
1368.8921092873425,0.28849220420577437
1371.3824105944368,0.2916820121032896
1373.9023567847216,0.29476715487601424
1376.3912265713043,0.29766025872926144
1378.9097244082113,0.3004186173668295
1381.3971639082774,0.302962859335801
1383.914214640121,0.30534227526870605
1386.4002250862322,0.3074875215216978
1388.9158299598967,0.30943949417068256
1391.4307079939972,0.31116021000232114
1393.9145728441363,0.31262399162229226
1396.4280068914595,0.31385873699257116
1398.9104457665926,0.3148285841234317
1401.422437070447,0.3155527346402
1403.9034511981918,0.316011212692646
1406.4140010004412,0.31621461497636044
1408.893591607004,0.31615947181279686
1411.4027011481012,0.31584795305718083
1413.8808694582804,0.31529303006346027
1416.388539977259,0.31448870097984966
1418.8954870924463,0.31344973985518004
1421.3715199489052,0.31220392373670364
1423.877029901585,0.3107336327835763
1426.3516435212223,0.30908824074832897
1428.8557175468777,0.30724299266722965
1431.3289131495767,0.3052584573393926
1433.8315524822574,0.30310336987440434
1436.3033312865118,0.3008470665317224
1438.8045371588632,0.29845254246157193
1441.2749003817698,0.2959953652809123
1443.7746740250223,0.29343370430827764
1446.2436228822844,0.29084686715561475
1448.7419655262602,0.2881892384234804
1451.2095012321843,0.2855415391853661
1453.7064141053015,0.2828555053707444
1456.1725378728079,0.28021119092083574
1458.6680222020732,0.2775588718222831
1461.1327352426997,0.27497614362559397
1463.6267922537227,0.27241301732533385
1466.090095777603,0.26994313985515345
1468.582726694589,0.2675174134219448
1471.044621910496,0.2652043354151209
1473.5358279562424,0.2629567775367213
1475.996316071556,0.2608371493259707
1478.4860984674815,0.2588012614091743
1480.9451806882025,0.2569047255741081
1483.4335406543069,0.2551071299321722
1485.8912181850574,0.2534567709976392
1488.3781569399653,0.25191770826774795
1490.8344309839958,0.25053056400002044
1493.2900079848114,0.2492788308003845
1495.7748215041174,0.24815196831210432
1498.2289968168734,0.2471787151822236
1500.7123921617567,0.24633632727005325
1503.1651669862695,0.2456454889734742
1505.647145370498,0.24508915274679244
1508.0985209052233,0.2446799560226651
1510.579083541168,0.24440655729243274
1513.02906098319,0.24427363247380277
1515.5082090818432,0.24427540840273762
1517.9567896268818,0.24440876371390777
1520.4046764008053,0.24466926681931295
1522.8817092402714,0.24505808318902028
1525.3282009046197,0.24556091674424713
1527.803822224585,0.2461843598405769
1530.2489199716838,0.2469071349368511
1532.7231309783128,0.2477398092449875
1535.16683599912,0.24865465869410905
1537.6098493197496,0.24965282348007678
1540.0819513813403,0.25073877372284403
1542.5235737559778,0.2518764794283765
1544.994268510025,0.2530829126766059
1547.4345011262485,0.25431766736811434
1549.8740435159852,0.2555830478352136
1552.3426338181598,0.25688216964231597
1554.7807882247253,0.2581703733814015
1557.2479742165997,0.2594649217765015
