Raman Shift (cm-1),Fitted Intensity
159.26151312198635,0.01439879369771067
162.17892251266312,0.014571273490552983
165.06070388440276,0.01474533161554083
167.97629817665074,0.01492528157112286
170.89098012548493,0.015109174431306945
173.77006778237046,0.015294879664799404
176.68293717714914,0.015487008462184995
179.59489550712533,0.015683492076351644
182.50594319967058,0.015884481514577536
185.38144153980102,0.016087658739635736
188.29068006676243,0.01629808393222074
191.19900923170644,0.01651351142555852
194.07182265961455,0.016731466588195784
196.97834519226308,0.016957391692412338
199.8839596359394,0.017188894162098886
202.75409191031576,0.01742332698739675
205.65790225025557,0.01766656108158611
208.5608057718964,0.017916043114806768
211.42826064439942,0.018168935834250697
214.32936258615155,0.018431593721744872
217.22955897789507,0.0187012873099038
220.09434019320543,0.01897496885191166
222.9927375242005,0.019259541807474804
225.89023057112718,0.019552083540583506
228.75234186693342,0.019849312837811637
231.64803836756255,0.020158760834438513
234.54283184768065,0.02047729300159501
237.4022769547155,0.020801368618246035
240.2952763983085,0.021139242290622584
243.18737408261222,0.021487547263665273
246.04415672466348,0.021842453880189173
248.93446287752522,0.022213058380044677
251.82386852998388,0.02259574017666384
254.67799242389083,0.022986347652570537
257.565609045334,0.02339496665496436
260.41796602711474,0.023812582115580957
263.3037952786035,0.024250039670237318
266.18872612093764,0.024703247553168654
269.0384305290536,0.025167435396812605
271.9215764941182,0.025654782454056987
274.8038253026716,0.026160888626151027
277.65088083558294,0.026680558698229363
280.5313472549242,0.027227600883778364
283.37664243438485,0.027790375519459818
286.2553281173605,0.028383987494568354
289.13311872473423,0.02900350927702107
291.97577117291803,0.029642955537799616
294.85178352428557,0.03031980615710984
297.6926797004962,0.031020205889761857
300.5669154435891,0.03176358515671607
303.44025818556474,0.03254457688547377
306.2785177554506,0.0333563602620781
309.150086361853,0.034222066449072566
311.98659372863403,0.03512503235280848
314.85638984211255,0.03609153670495018
317.69114662786524,0.0371035898816909
320.55917188903913,0.038191349357712484
323.42630704161274,0.03934957615293168
326.25843576130865,0.04057054131066324
329.1238025236089,0.04189204691280993
331.9541847135806,0.043291952939831735
334.8177847211591,0.04481467492811785
337.6464219965019,0.04643576523235378
340.5082568828984,0.04820768642035166
343.3351508567066,0.05010287130211911
346.1952222534492,0.05218330329562536
349.0203745368344,0.05441687369702457
351.8786840734356,0.05687633066186101
354.7361080202609,0.059555931648351615
357.55864557949826,0.06243995802775074
360.4143101115624,0.06561810110912443
363.23511000427607,0.06903362219297494
366.08901674608205,0.07278607655372209
368.90808057645336,0.07679995410713485
371.7602311504961,0.08118144973198382
374.57756052071636,0.08582958307261816
377.42795654749716,0.09085212935752172
380.2435530577968,0.09611638642055585
383.0921961558306,0.10172547640693948
385.90606140446107,0.10751130600424912
388.7529531902692,0.11356630879806265
391.56508877352826,0.11968846440030295
394.41023086164205,0.12595549617317459
397.2206383738594,0.13214018666826602
400.0640323768239,0.13830518773819586
402.8727134103756,0.1442147144182982
405.71436093876036,0.1499203589156
408.5213170840616,0.1552005655909343
411.36121974646085,0.16010348588977605
414.16645259197685,0.16444654285075902
417.00461199500205,0.1682834702074495
419.8081231272481,0.17149161089854492
422.6107791472823,0.17410984536229593
425.446331879084,0.17617098159335762
428.2472685572284,0.17765991912858736
431.0810820327788,0.1786685433080207
433.88030095069917,0.17924702638270712
436.71237676973396,0.17950110120666035
439.5098795071426,0.17952771598313122
442.3402192674366,0.1794411590036812
445.1360074021177,0.1793603702349781
447.930943955329,0.1794019285938069
450.75868780728706,0.17968670809941245
453.5519121161087,0.18032067964167034
456.3779238904244,0.18142795157815197
459.1694375278166,0.1830827925138542
461.99371881542174,0.1854206844762367
464.7835233524238,0.18847411414210893
467.5724790401364,0.1923492891112365
470.39417274803054,0.1971886540959681
473.18142168360646,0.20295487786169053
476.00138886887726,0.20986526294185032
478.7869326185464,0.2178323248415502
481.60517486533354,0.22712615785618231
484.3890149934232,0.23760099780967706
487.17200899273666,0.24943096048456093
489.9876719528438,0.262847628225458
492.76896466880135,0.27758170129436666
495.5829066375736,0.29401804646639274
498.3624996297294,0.31176539131070613
501.14124842855017,0.33097215817760206
503.9526170105346,0.3518085540226939
506.7296684166504,0.3736349852858294
509.505876786945,0.3964859251452975
512.3146755106209,0.4203761866406056
515.0891888150436,0.4443927156802269
517.8962728359329,0.46869924503079813
520.6690926264382,0.4922543573494137
523.4410713071484,0.5148516559171772
526.2455913408958,0.5362195628847456
529.0158788274384,0.5553346303237715
531.785326356061,0.5719831858763821
534.5872859139781,0.5858915312917665
537.3550445639485,0.5963869222795185
540.1219644057746,0.6034172507615966
542.9213669927594,0.6068818472225471
545.686600267225,0.6067009962515293
548.4509958812232,0.603061915261799
551.2478449957853,0.5960993376090443
554.0105563494981,0.5863140885871088
556.805701690384,0.5738870648820611
559.5667303225964,0.559574050407368
562.3269232040038,0.5437196844183263
565.0862807140293,0.5268006606258078
567.8780333537688,0.5090566340877654
570.6357112050464,0.4913251251470587
573.3925548263542,0.4737536879222158
576.1817644509756,0.4564336461496469
578.9369307080196,0.44000823948392964
581.6912638744288,0.42443302322647486
584.4779339570123,0.40964492389371876
587.2305920494691,0.39605259905727846
589.9824181885451,0.3834879476638444
592.7665521958479,0.37179893671743264
595.5167055471175,0.3612206825193297
598.2660280801974,0.35154934174294505
601.0145201715131,0.34271723290878464
603.7952814999189,0.3345603643526326
606.5421038421155,0.3272016229571695
609.2880968749887,0.3204723606462778
612.0663301881068,0.31423990310384997
614.8106557483188,0.3085968535875662
617.554153129593,0.30341726866914126
620.2968227067649,0.2986593238452905
623.0716940541533,0.2942369406357941
625.8126991844802,0.29022510331846585
628.552877638358,0.2865438319436969
631.2922297897167,0.28317226993435873
634.0637452701958,0.2800577642994598
636.8014359932095,0.27726008456855017
639.5383015386324,0.27472874622183274
642.3073015987065,0.27242838557463483
645.0425079771339,0.27040613955625215
647.7768903008473,0.2686273125196932
650.5104489421938,0.2670878298767125
653.2431842732913,0.26578535537038855
656.0080062575216,0.2647080149095518
658.7390861754284,0.26388307501513203
661.4693439025905,0.2633002524576178
664.1987798102273,0.26296624452403383
666.9602641357596,0.2628916589257962
669.6880476268889,0.2630920608508534
672.4150104152941,0.2635830547590185
675.141152871307,0.2643878735127061
677.8993055782594,0.265551845580347
680.6237986072192,0.2670839674567213
683.3474724178923,0.269040521309463
686.0703273797008,0.271475483681602
688.7923638618704,0.2744535943203457
691.5463630106569,0.2780992445858567
694.2667537902307,0.28241708120756664
696.9863272009134,0.28755201758468824
699.705083611032,0.2936251936568548
702.4230233886883,0.3007738363555638
705.1728783546314,0.309259852049804
707.8891761429404,0.3190496403385098
710.6046584062024,0.33041381066354253
713.3193255116239,0.34353469597681413
716.033177826208,0.35859175162044826
718.7462157167283,0.37575094691817434
721.491111983778,0.3953992366576613
724.2025123243511,0.41716576203478045
726.9130993442814,0.44130556265151627
729.6228734094693,0.46777404275828616
732.3318348855792,0.4964291913294598
735.0399841380749,0.5270163008275355
737.7799351068679,0.5595523380064766
740.4864512328204,0.5927526091655132
743.1921562345997,0.6263699790157641
745.8970504767931,0.659674961247041
748.6011343237551,0.6918630242900207
751.3044081396256,0.7220944880848926
754.0394271625555,0.7498555242262714
756.741072259374,0.7737286824046278
759.4419084205874,0.7934577709168015
762.1419360094733,0.8086585930307496
764.8411553890837,0.8192638974463825
767.539566922238,0.8256640045402475
770.2371709715626,0.8289605293957099
772.9339678994475,0.8314911294193922
775.6624349602753,0.8379776274516999
778.3576090181923,0.8563407669148376
781.0519770449282,0.8959605660259635
783.7455394020071,0.9560597115790356
786.4382964507422,1.0097034392827688
789.1302485522319,1.0120657057935054
791.8213960673565,0.9434475833465368
794.5117393567816,0.8330992777747149
797.2012787809545,0.7267411604013476
799.922404211542,0.6467260158960125
802.6103273114531,0.5938813323106537
805.2974476305062,0.5585935558751272
807.9837655282827,0.5343537270017114
810.6692813641639,0.517600043758639
813.3539954973021,0.50649086253823
816.037908286642,0.4999871650690037
818.7210200909067,0.4974098054193669
821.4033312686151,0.4982445890557005
824.0848421780756,0.502055174238293
826.7655531773598,0.5084426247761502
829.4777478409233,0.5171413013724158
832.1568504666102,0.5275681448387051
834.8351542594137,0.5394465548613228
837.5126595765614,0.5524120940412814
840.1893667750774,0.5661043711262296
842.8652762117599,0.5801693910617238
845.5403882432074,0.5942632693130611
848.2147032257963,0.6080571717964588
850.8882215157028,0.6212433327673199
853.5609434688704,0.6335419659842746
856.2328694410462,0.644708841583103
858.9039997877626,0.654543261302108
861.5743348643446,0.6628961273268653
864.2438750258916,0.6696777564214895
866.9126206273068,0.674865026070637
869.5805720232747,0.6785073343505349
872.2477295682729,0.6807306936264615
874.9140936165568,0.6817390553000867
877.5796645221853,0.681811699579017
880.2444426389957,0.6812952819269509
882.9084283206321,0.6805890187412474
885.5716219205024,0.6801216793886928
888.2340237918252,0.6803197132097111
890.8956342876045,0.6815671305694195
893.5564537606224,0.6841597205176908
896.2164825634645,0.6882586812228252
898.8757210485091,0.6938513899514944
901.566194253428,0.700818525717007
904.2238436478765,0.7085908420959647
906.88070378462,0.7167001450221246
909.5047788508018,0.7244621254142266
912.1600710251078,0.7315748156151388
914.8145749914547,0.7377390177767489
917.4682911007549,0.7432795718470343
920.1212197037094,0.7492525521706146
922.7733611508156,0.7574887987773472
925.4247157923564,0.7702540927120013
928.0752839784072,0.7893001254080155
930.725066058847,0.8143254527640563
933.3740623833291,0.8414222440687114
936.0222733013143,0.8626499336495893
938.669699162052,0.8677826681299416
941.3163403145809,0.8480972260699917
943.9621971077358,0.8004082961476565
946.607269890148,0.7288973547379258
949.2515590102339,0.6435257277312247
951.8950648162136,0.5561018668513499
954.5377876560888,0.4764804725433398
957.1797278776648,0.4109789041240338
959.8208858285398,0.3637309310138966
962.4612618561077,0.33900864765074673
965.1008563075484,0.3342556447465078
967.7396695298376,0.3241552733309045
970.3777018697583,0.286129293331488
973.0149536738754,0.2385317212681828
975.65142528855,0.20390021912901857
978.2871170599428,0.18221862061417085
980.8902880408277,0.1675260576441545
983.5244305486303,0.15613774608046568
986.1577942462391,0.14684901960997582
988.7903794789963,0.1389974278162041
991.4221865920408,0.13221591495392487
994.0532159303111,0.12627359163074445
996.6834678385349,0.12101215719202407
999.3129426612431,0.11631648889197137
1001.9416407427561,0.11209930948063238
1004.5695624271975,0.1082924085329488
1007.1967080584836,0.10484123367711248
1009.8230779803271,0.10170136070622923
1012.4170434801454,0.09886909612679261
1015.041872349022,0.0962449403890481
1017.665926534246,0.09383903793982103
1020.2892063787294,0.09162924848885258
1022.9117122251773,0.0895965638001103
1025.5334444160871,0.08772455600210294
1028.15440329376,0.08599894361254644
1030.7745892002931,0.08440724582504754
1033.3940024775802,0.08293850404526962
1035.9810981708106,0.08159874657239327
1038.598976513018,0.08034682308789354
1041.2160832463414,0.07919212921751298
1043.832418711885,0.07812788695935627
1046.447983250535,0.07714804034051942
1049.0627772029802,0.07624716474095412
1051.676800909714,0.0754203900163049
1054.290054711022,0.07466333499169496
1056.8710678120515,0.0739800030751245
1059.48279208834,0.07335019761028166
1062.093747474777,0.07277941633150278
1064.7039343108554,0.07226474220700524
1067.313352935871,0.07180353421991947
1069.9220036889128,0.07139339998397577
1072.4984711957586,0.07103624080850512
1075.105596462614,0.07072139998499216
1077.7119548694973,0.07045174269501407
1080.317546754708,0.07022565703413489
1082.9223724563308,0.0700416857733788
1085.5264323122756,0.06989851360686819
1088.1297266602414,0.06979495584558842
1090.700904617097,0.06973050603026885
1093.3026781742628,0.06970264866035486
1095.90368723129,0.06971155000120233
1098.5039321250988,0.0697564567916627
1101.1034131923952,0.06983670615112579
1103.6708254619662,0.06995012937247164
1106.2687890782108,0.07009899897936485
1108.8659898728438,0.07028171603498909
1111.4624281817887,0.07049792769996788
1114.0581043407765,0.070747348816404
1116.6217591897112,0.0710261605476763
1119.2159212276165,0.07134100541754802
1121.8093221175222,0.07168858108902898
1124.4019621943662,0.07206884395466683
1126.9938417929043,0.07248180537390006
1129.5537474636767,0.07292196435771314
1132.1441162613737,0.07340017130266228
1134.7337255797866,0.07391142199422052
1137.322575752878,0.07445593166218685
1139.9106671144218,0.07503396371571065
1142.466831825419,0.07563825427272526
1145.0534156966605,0.07628389552346934
1147.6392417524658,0.07696412512790397
1150.2243103258224,0.07767939101233773
1152.7774899721844,0.0784209267103417
1155.3610536951164,0.07920735003559101
1157.9438609293902,0.0800304136740157
1160.5259120072114,0.08089074213640886
1163.1072072606003,0.08178900336876063
1165.6566606759006,0.08271438751358295
1168.2364543720396,0.08369021099906146
1170.8154932346333,0.08470621872594056
1173.3937775949307,0.08576324861378656
1175.940257690534,0.08684868708573523
1178.5170431196166,0.0879899193762528
1181.0930750349762,0.08917492310659894
1183.6683537670833,0.09040469835446902
1186.2118657414467,0.09166463845487713
1188.7856481622657,0.09298653876185267
1191.3586783861065,0.09435642387092293
1193.9309567426717,0.09577543979578798
1196.471505782134,0.09722675801432637
1199.0422904412299,0.09874697257158625
1201.6123242170252,0.10031992507086275
1204.1506566845674,0.10192694653107226
1206.7191987172919,0.103608499176251
1209.2869908489847,0.10534660826693504
1211.8540334080099,0.10714258021318364
1214.389411983815,0.10897501837076615
1216.9549654029506,0.11088991419191968
1219.5197702293917,0.11286658280521336
1222.0529389950316,0.11488135550317444
1224.61625662804,0.11698462187347296
1227.1788266466283,0.11915341999876804
1229.7406493778217,0.12138892915349717
1232.2708732581305,0.12366411024374571
1234.8312113884967,0.12603549221464683
1237.3908032074723,0.12847669925588812
1239.9188240118929,0.1309578989490023
1242.4769331685857,0.1335403343570849
1245.0342969881858,0.1361947670128642
1247.560117592806,0.13888834174668455
1250.116000685306,0.14168700131924078
1252.6711394133126,0.14455837733910035
1255.194762689218,0.14746638369237372
1257.7484226219312,0.1504815112370795
1260.3013391610693,0.15356801394811675
1262.822767974354,0.15668641962785054
1265.3742076466478,0.1599114481070298
1267.924904894593,0.16320378676510444
1270.4441421063602,0.16652052198131456
1272.993364412563,0.16994009647490793
1275.5418452619597,0.17341955870569903
1278.0588937283464,0.1769126606129599
1280.6059015577484,0.18050087582218066
1283.1521688962057,0.18413773427125418
1285.6670314683906,0.1877739963239316
1288.2118277052796,0.19149331868757932
1290.755884415401,0.19524611119261967
1293.2685639396113,0.19898079140391814
1295.811151463251,0.202782256715483
1298.3530004226377,0.2065985456227669
1300.8634997401532,0.21037672679991773
1303.403881424827,0.21420198382411842
1305.9129317732186,0.2179751575019575
1308.4518474532706,0.22178112350864626
1310.9900261682633,0.22556661821516774
1313.4969010306886,0.2292794724734668
1316.0336156473168,0.23300342949599792
1318.5695942569437,0.2366864351008267
1321.074296461582,0.2402787641241814
1323.6088128757874,0.24386231255655158
1326.112071126503,0.24734559538112644
1328.6451266095319,0.2508089070258214
1331.1774476773753,0.25420529282038373
1333.6785379692556,0.2574916131049351
1336.209400003383,0.260745162618255
1338.7090494631484,0.26388530171883634
1341.2384537241596,0.26698688094879053
1343.76712515721,0.2700098722477561
1346.2646113435585,0.27291841442012116
1348.7918268954818,0.2757828827046311
1351.2878753625337,0.2785338841098327
1353.8136362903097,0.28123821056597603
1356.338665972784,0.283861464647194
1358.832555838333,0.2863729666521225
1361.3561327831994,0.2888331302507936
1363.8485880333137,0.29118143687017234
1366.3707134939323,0.29347338822553903
1368.8921092873425,0.2956774400906117
1371.3824105944368,0.29776561427372294
1373.9023567847216,0.29978509112715435
1376.3912265713043,0.3016828077546714
1378.9097244082113,0.30349986774802523
1381.3971639082774,0.30518672881375186
1383.914214640121,0.30677808182110056
1386.4002250862322,0.30822873587938604
1388.9158299598967,0.309566733845529
1391.4307079939972,0.3107659721376933
1393.9145728441363,0.31180694293610867
1396.4280068914595,0.3127074953096865
1398.9104457665926,0.3134388037798942
1401.422437070447,0.3140119583208619
1403.9034511981918,0.31440718738581624
1406.4140010004412,0.3146289501326822
1408.893591607004,0.31466784048725216
1411.4027011481012,0.3145218873587613
1413.8808694582804,0.31419305557230676
1416.388539977259,0.3136731956733917
1418.8954870924463,0.3129665915998531
1421.3715199489052,0.3120880463759169
1423.877029901585,0.3110206742069851
1426.3516435212223,0.3097961868819693
1428.8557175468777,0.30839229775352145
1431.3289131495767,0.3068516719658583
1433.8315524822574,0.30514700108723575
1436.3033312865118,0.3033305976294566
1438.8045371588632,0.30137057595788486
1441.2749003817698,0.29932720209780456
1443.7746740250223,0.2971645454486376
1446.2436228822844,0.29494887876468395
1448.7419655262602,0.2926408624984204
1451.2095012321843,0.29031071734843805
1453.7064141053015,0.28791643905059355
1456.1725378728079,0.2855301537789004
1458.6680222020732,0.2831080351992586
1461.1327352426997,0.28072219174191637
1463.6267922537227,0.278327892957091
1466.090095777603,0.27599549719216104
1468.582726694589,0.27368033028791483
1471.044621910496,0.27144949953445524
1473.5358279562424,0.26925935219229724
1475.996316071556,0.2671724886459493
1478.4860984674815,0.26514720964372007
1480.9451806882025,0.263240591596498
1483.4335406543069,0.2614137536928905
1485.8912181850574,0.2597174506850146
1488.3781569399653,0.2581163900071207
1490.8344309839958,0.25665440032842757
1493.2900079848114,0.25531597400724826
1495.7748215041174,0.2540909449955721
1498.2289968168734,0.2530119974914809
1500.7123921617567,0.25205536346036145
1503.1651669862695,0.2512459587499521
1505.647145370498,0.25056529730673593
1508.0985209052233,0.25003039732809784
1510.579083541168,0.24962821753421208
1513.02906098319,0.2493678455298336
1515.5082090818432,0.24924169863565424
1517.9567896268818,0.249250991056517
1520.4046764008053,0.24939096170211086
1522.8817092402714,0.24966260387813333
1525.3282009046197,0.25005565179591593
1527.803822224585,0.25057523818838545
1530.2489199716838,0.251203780179433
1532.7231309783128,0.25195075198676503
1535.16683599912,0.25279167346107845
1537.6098493197496,0.25372774862875125
1540.0819513813403,0.2547640752540455
1542.5235737559778,0.2558669501519223
1544.994268510025,0.2570536131765392
1547.4345011262485,0.25828519075565376
1549.8740435159852,0.2595646430528313
1552.3426338181598,0.26089651142142933
1554.7807882247253,0.26223618259186127
1557.2479742165997,0.26360291073924935
