Raman Shift (cm-1),Fitted Intensity
159.26151312198635,0.03931729347909643
162.17892251266312,0.039810035589247554
165.06070388440276,0.040307776303343396
167.97629817665074,0.04082287559864799
170.89098012548493,0.04134978950578437
173.77006778237046,0.04188243014629318
176.68293717714914,0.042434050290771734
179.59489550712533,0.04299874778058456
182.50594319967058,0.04357698496982064
185.38144153980102,0.04416211094866132
188.29068006676243,0.044768727430189
191.19900923170644,0.045390400890430616
194.07182265961455,0.046020008294045074
196.97834519226308,0.04667330043175956
199.8839596359394,0.047343400241364623
202.75409191031576,0.048022663021945855
205.65790225025557,0.048728128525639444
208.5608057718964,0.04945243179369283
211.42826064439942,0.05018735001055195
214.32936258615155,0.050951375258812326
217.22955897789507,0.051736604569379396
220.09434019320543,0.0525341724062179
222.9927375242005,0.05336421498535786
225.89023057112718,0.054218234474917
228.75234186693342,0.055086648289949594
231.64803836756255,0.05599146311220607
234.54283184768065,0.0569235213903916
237.4022769547155,0.057872437431403974
240.2952763983085,0.058862356701722636
243.18737408261222,0.05988338737794735
246.04415672466348,0.0609242402332847
248.93446287752522,0.06201151884167806
251.82386852998388,0.06313451051464511
254.67799242389083,0.06428090416955552
257.565609045334,0.06548014252028098
260.41796602711474,0.06670557248976683
263.3037952786035,0.06798877278790082
266.18872612093764,0.06931742772677231
269.0384305290536,0.07067719746695714
271.9215764941182,0.07210330558546765
274.8038253026716,0.07358229566677994
277.65088083558294,0.075098361005928
280.5313472549242,0.07669097959904828
283.37664243438485,0.078325310331639
286.2553281173605,0.08004405412926123
289.13311872473423,0.08183145049284121
291.97577117291803,0.08366868845146092
294.85178352428557,0.08560399385381283
297.6926797004962,0.08759540763705194
300.5669154435891,0.0896953416879855
303.44025818556474,0.09188501264189004
306.2785177554506,0.09414163013767947
309.150086361853,0.09652476668125959
311.98659372863403,0.0989830597360962
314.85638984211255,0.10158148426593107
317.69114662786524,0.10426409308442693
320.55917188903913,0.1071018200172747
323.42630704161274,0.11006968871330226
326.25843576130865,0.11313681335780039
329.1238025236089,0.11638420992007299
331.9541847135806,0.1197418094809532
334.8177847211591,0.12329813008973516
337.6464219965019,0.1269762151696734
340.5082568828984,0.13087274622668288
343.3351508567066,0.13490305956379275
346.1952222534492,0.13917267460953445
349.0203745368344,0.1435883338474243
351.8786840734356,0.14826507126777966
354.7361080202609,0.15315967463231675
357.55864557949826,0.15821860420298323
360.4143101115624,0.16357243965368445
363.23511000427607,0.169102169517831
366.08901674608205,0.1749495020628473
368.90808057645336,0.18098335253575515
371.7602311504961,0.18735712815733552
374.57756052071636,0.19392664334948176
377.42795654749716,0.2008575035126051
380.2435530577968,0.20799142298678708
383.0921961558306,0.21550661137845517
385.90606140446107,0.22322974078461968
388.7529531902692,0.2313519135042711
391.56508877352826,0.23968390547659577
394.41023086164205,0.24842985610007878
397.2206383738594,0.25738391261204013
400.0640323768239,0.26676322340763087
402.8727134103756,0.27634473087324474
405.71436093876036,0.28635836211806515
408.5213170840616,0.29656347212660855
411.36121974646085,0.3072023044302571
414.16645259197685,0.3180164776306241
417.00461199500205,0.3292598289434473
419.8081231272481,0.340656368647999
422.6107791472823,0.35232826154783436
425.446331879084,0.36440913584361084
428.2472685572284,0.3765976024270336
431.0810820327788,0.3891713786953222
433.88030095069917,0.40181331744576143
436.71237676973396,0.4148078517334971
439.5098795071426,0.4278235707442195
442.3402192674366,0.4411495240380278
445.1360074021177,0.4544420442296039
447.930943955329,0.4678306329274035
450.75868780728706,0.4814472489231162
453.5519121161087,0.4949348587064811
456.3779238904244,0.508583036827937
459.1694375278166,0.5220300221758726
461.99371881542174,0.5355606048837183
464.7835233524238,0.5488123682861535
467.5724790401364,0.5619056326766627
470.39417274803054,0.5749518062194269
473.18142168360646,0.5875963365884319
476.00138886887726,0.6000985622483752
478.7869326185464,0.6121157891372064
481.60517486533354,0.6238917867042968
484.3890149934232,0.6351014014279398
487.17200899273666,0.6458435472369275
489.9876719528438,0.6561956296425394
492.76896466880135,0.6658696270014461
495.5829066375736,0.6750583526928559
498.3624996297294,0.6835056656321522
501.14124842855017,0.691290274051739
503.9526170105346,0.6984619754396922
506.7296684166504,0.7048218740419403
509.505876786945,0.7104354941279419
512.3146755106209,0.7153364573818423
515.0891888150436,0.7193922379028206
517.8962728359329,0.7226891968297552
520.6690926264382,0.7251424946090985
523.4410713071484,0.7267948511572604
526.2455913408958,0.7276554363984117
529.0158788274384,0.7277126508871083
531.785326356061,0.7269954360069927
534.5872859139781,0.7255004631169113
537.3550445639485,0.7232874436570528
540.1219644057746,0.7203717586766871
542.9213669927594,0.716739519560344
545.686600267225,0.7125151718652227
548.4509958812232,0.707701081333823
551.2478449957853,0.702274928046072
554.0105563494981,0.69641514209615
556.805701690384,0.690033630385313
559.5667303225964,0.6833372187666835
562.3269232040038,0.6763090073910876
565.0862807140293,0.6690072324596201
567.8780333537688,0.6613998106796575
570.6357112050464,0.6537288631615759
573.3925548263542,0.6459657942250507
576.1817644509756,0.6380775426373324
578.9369307080196,0.6303128903507009
581.6912638744288,0.6226375167810058
584.4779339570123,0.6150201678290759
587.2305920494691,0.6076995010905383
589.9824181885451,0.6006386179771879
592.7665521958479,0.5938108793666145
595.5167055471175,0.5874293699678255
598.2660280801974,0.5814580282467431
601.0145201715131,0.5759410315181492
603.7952814999189,0.5708619866996582
606.5421038421155,0.5663796794626008
609.2880968749887,0.5624644390266681
612.0663301881068,0.559110157891932
614.8106557483188,0.5564231953595419
617.554153129593,0.5543822089366395
620.2968227067649,0.5530053990261576
623.0716940541533,0.5523026215723938
625.8126991844802,0.5523006200365905
628.552877638358,0.5529926145343069
631.2922297897167,0.5543800956443776
634.0637452701958,0.5564896061557194
636.8014359932095,0.5592639036623931
639.5383015386324,0.562712789552662
642.3073015987065,0.5668744163290725
645.0425079771339,0.5716301028424411
647.7768903008473,0.5770020145873528
650.5104489421938,0.582962778262323
653.2431842732913,0.5894811942134313
656.0080062575216,0.5966102293709944
658.7390861754284,0.6041412865516
661.4693439025905,0.6121142959944676
664.1987798102273,0.6204842214821558
666.9602641357596,0.6293100587104431
669.6880476268889,0.6383304980896234
672.4150104152941,0.64759556376208
675.141152871307,0.6570501789134937
677.8993055782594,0.6667536942638844
680.6237986072192,0.6764165072516398
683.3474724178923,0.6860946818619497
686.0703273797008,0.6957291608336166
688.7923638618704,0.7052611421374954
691.5463630106569,0.7147443624470903
694.2667537902307,0.7238959827972558
696.9863272009134,0.7327756727138929
699.705083611032,0.7413320140099914
702.4230233886883,0.749517273378982
705.1728783546314,0.7573792036870806
707.8891761429404,0.7646925743977759
710.6046584062024,0.7715224709862396
713.3193255116239,0.7778455028625871
716.033177826208,0.7836472723870659
718.7462157167283,0.788923824064975
721.491111983778,0.7937375113073085
724.2025123243511,0.7979958894280201
726.9130993442814,0.8017969112811596
729.6228734094693,0.8051952335106402
732.3318348855792,0.8082636553182201
735.0399841380749,0.8110931365866451
737.7799351068679,0.8138232757622883
740.4864512328204,0.816509928930286
743.1921562345997,0.8193103136387038
745.8970504767931,0.8223413624442517
748.6011343237551,0.8256970873387456
751.3044081396256,0.8294297236085482
754.0394271625555,0.8335811096196462
756.741072259374,0.8379618272085869
759.4419084205874,0.842437751656126
762.1419360094733,0.8467354539843106
764.8411553890837,0.8505028847512974
767.539566922238,0.8533382181560473
770.2371709715626,0.8548324560935575
772.9339678994475,0.8546207474826549
775.6624349602753,0.8523955626480284
778.3576090181923,0.8480815731828658
781.0519770449282,0.8417067038832156
783.7455394020071,0.833486452121674
786.4382964507422,0.8237914222299659
789.1302485522319,0.8131087635849451
791.8213960673565,0.801990246318229
794.5117393567816,0.7909958678595339
797.2012787809545,0.780641784876386
799.922404211542,0.7712555710550953
802.6103273114531,0.7633840901195655
805.2974476305062,0.7571070183965967
807.9837655282827,0.7525056962141908
810.6692813641639,0.7495575009828956
813.3539954973021,0.7481549105401556
816.037908286642,0.7481265944899429
818.7210200909067,0.749257824966449
821.4033312686151,0.75130861179194
824.0848421780756,0.7540289247370727
826.7655531773598,0.7571710185820515
829.4777478409233,0.7605395319471311
832.1568504666102,0.763836241374771
834.8351542594137,0.76691046510704
837.5126595765614,0.7696018685701782
840.1893667750774,0.7717825779503317
842.8652762117599,0.7733583070341619
845.5403882432074,0.7742679410231077
848.2147032257963,0.7744816258631289
850.8882215157028,0.773997497840653
853.5609434688704,0.7728372847947439
856.2328694410462,0.7710410957174341
858.9039997877626,0.7686617736706726
861.5743348643446,0.7657592086093615
864.2438750258916,0.7623949895478512
866.9126206273068,0.758627723250087
869.5805720232747,0.7545092674894137
872.2477295682729,0.7500820318242961
874.9140936165568,0.745377399481204
877.5796645221853,0.7404152311422658
880.2444426389957,0.7352043338331782
882.9084283206321,0.7297437213523716
885.5716219205024,0.7240244592177835
888.2340237918252,0.7180318763938904
890.8956342876045,0.711747935186324
893.5564537606224,0.7051535751664532
896.2164825634645,0.6982308816164855
898.8757210485091,0.690964968629425
901.566194253428,0.683251525751418
904.2238436478765,0.6752695666309201
906.88070378462,0.6669313103760627
909.5047788508018,0.6583521652610573
912.1600710251078,0.6493383548300437
914.8145749914547,0.6400147740321518
917.4682911007549,0.6304101893889751
920.1212197037094,0.6205594151782726
922.7733611508156,0.6105030593900806
925.4247157923564,0.6002876957603308
928.0752839784072,0.5899670892998805
930.725066058847,0.5796059840568384
933.3740623833291,0.5692906383991767
936.0222733013143,0.5591597629516752
938.669699162052,0.5495110380834723
941.3163403145809,0.5412910467894534
943.9621971077358,0.5400720730303359
946.607269890148,0.61331587110847
949.2515590102339,0.5733532348116244
951.8950648162136,0.5069771721496961
954.5377876560888,0.4909663933930254
957.1797278776648,0.4799228487614228
959.8208858285398,0.47021798868592374
962.4612618561077,0.46117656049359707
965.1008563075484,0.4526005387897776
967.7396695298376,0.44441485554903903
970.3777018697583,0.436584315192548
973.0149536738754,0.42908806016784784
975.65142528855,0.4219102983634564
978.2871170599428,0.4150365908639571
980.8902880408277,0.40852998826194276
983.5244305486303,0.4022165824106814
986.1577942462391,0.3961611908986548
988.7903794789963,0.3903467691532683
991.4221865920408,0.38475567196854393
994.0532159303111,0.37936990436793855
996.6834678385349,0.37417139203697736
999.3129426612431,0.3691422516816749
1001.9416407427561,0.3642650490403133
1004.5695624271975,0.35952303665684926
1007.1967080584836,0.35490036631812594
1009.8230779803271,0.3503822729641356
1012.4170434801454,0.3460080736839554
1015.041872349022,0.3416590249482018
1017.665926534246,0.33737825758103956
1020.2892063787294,0.3331565466418351
1022.9117122251773,0.3289862111675679
1025.5334444160871,0.32486111953712904
1028.15440329376,0.32077666967855306
1030.7745892002931,0.3167297464800751
1033.3940024775802,0.3127186589674609
1035.9810981708106,0.30879074514768684
1038.598976513018,0.3048510876665849
1041.2160832463414,0.3009498322118622
1043.832418711885,0.2970900354491812
1046.447983250535,0.29327565799797656
1049.0627772029802,0.2895114376890843
1051.676800909714,0.285802761260082
1054.290054711022,0.28215553672943844
1056.8710678120515,0.2786187656118883
1059.48279208834,0.2751126985068306
1062.093747474777,0.2716876284189377
1064.7039343108554,0.26835035230800725
1067.313352935871,0.2651076248940799
1069.9220036889128,0.2619660696488121
1072.4984711957586,0.25896798882738503
1075.105596462614,0.25604633327595877
1077.7119548694973,0.2532441270348616
1080.317546754708,0.25056678767726653
1082.9223724563308,0.24801931131118982
1085.5264323122756,0.24560624514734605
1088.1297266602414,0.24333166952638274
1090.700904617097,0.24122402284686795
1093.3026781742628,0.2392349979714959
1095.90368723129,0.237393822923885
1098.5039321250988,0.23570270233550272
1101.1034131923952,0.23416340167806055
1103.6708254619662,0.2327930553917115
1106.2687890782108,0.2315591946794862
1108.8659898728438,0.23048006457197862
1111.4624281817887,0.22955594908625615
1114.0581043407765,0.2287868426574029
1116.6217591897112,0.22817896867744786
1119.2159212276165,0.22771703046245223
1121.8093221175222,0.2274087172127422
1124.4019621943662,0.2272532278179607
1126.9938417929043,0.22724965010806286
1129.5537474636767,0.22739432476191127
1132.1441162613737,0.22768975490035304
1134.7337255797866,0.228134031002338
1137.322575752878,0.2287261117917227
1139.9106671144218,0.22946499271949572
1142.466831825419,0.23033820535187702
1145.0534156966605,0.23136619261154612
1147.6392417524658,0.23253841845098228
1150.2243103258224,0.23385423587200568
1152.7774899721844,0.2352947026546331
1155.3610536951164,0.23689458409060288
1157.9438609293902,0.23863695697494863
1160.5259120072114,0.24052176781346363
1163.1072072606003,0.24254913445017706
1165.6566606759006,0.24469235265845957
1168.2364543720396,0.2470041661922536
1170.8154932346333,0.24945995723076927
1173.3937775949307,0.252060568819891
1175.940257690534,0.25477306707882574
1178.5170431196166,0.2576648105422491
1181.0930750349762,0.26070499447225914
1183.6683537670833,0.2638951920901966
1186.2118657414467,0.267195976759414
1188.7856481622657,0.27068975386419014
1191.3586783861065,0.27433926823954025
1193.9309567426717,0.27814675679192724
1196.471505782134,0.2820658346632756
1199.0422904412299,0.2861945857795699
1201.6123242170252,0.2904888353763847
1204.1506566845674,0.29489656801586106
1206.7191987172919,0.2995281226344449
1209.2869908489847,0.30433371126672315
1211.8540334080099,0.3093163462398623
1214.389411983815,0.31441580086575194
1216.9549654029506,0.3197595048125501
1219.5197702293917,0.32528944444606933
1222.0529389950316,0.33093863181766225
1224.61625662804,0.3368478223720509
1227.1788266466283,0.3429521809153031
1229.7406493778217,0.3492544922923768
1232.2708732581305,0.35567782374785945
1234.8312113884967,0.36238122811221835
1237.3908032074723,0.3692897403886138
1239.9188240118929,0.3763182413701285
1242.4769331685857,0.3836396297014254
1245.0342969881858,0.39117050959827593
1247.560117592806,0.3988169490799633
1250.116000685306,0.4067654830349219
1252.6711394133126,0.4149235495486568
1255.194762689218,0.42318784741180765
1257.7484226219312,0.4317579353855573
1260.3013391610693,0.4405314166939617
1262.822767974354,0.44939523359107025
1265.3742076466478,0.45856086551000363
1267.924904894593,0.4679156017538035
1270.4441421063602,0.4773365546759179
1272.993364412563,0.4870454798956772
1275.5418452619597,0.49691924389783176
1278.0588937283464,0.5068255624096227
1280.6059015577484,0.516994299218003
1283.1521688962057,0.5272923953682077
1285.6670314683906,0.5375793353811305
1288.2118277052796,0.5480905130365765
1290.755884415401,0.5586843110824478
1293.2685639396113,0.5692140929817369
1295.811151463251,0.579918011250039
1298.3530004226377,0.5906483487162673
1300.8634997401532,0.6012555168078756
1303.403881424827,0.6119777532054795
1305.9129317732186,0.6225363868305772
1308.4518474532706,0.6331684113240786
1310.9900261682633,0.6437244540498395
1313.4969010306886,0.6540594609924663
1316.0336156473168,0.6644070097062885
1318.5695942569437,0.6746230544725288
1321.074296461582,0.6845714108892873
1323.6088128757874,0.6944808993981255
1326.112071126503,0.7041011653278318
1328.6451266095319,0.7136573455216518
1331.1774476773753,0.7230238828145309
1333.6785379692556,0.7320867931074497
1336.209400003383,0.7410650452069244
1338.7090494631484,0.7497426895312618
1341.2384537241596,0.7583341460522944
1343.76712515721,0.7667374266095137
1346.2646113435585,0.7748615130155738
1348.7918268954818,0.7829131311665007
1351.2878753625337,0.7907079795999722
1353.8136362903097,0.7984469414534139
1356.338665972784,0.8060453336884099
1358.832555838333,0.8134252226899537
1361.3561327831994,0.8207773430410347
1363.8485880333137,0.8279341593183848
1366.3707134939323,0.8350785848474254
1368.8921092873425,0.8421292560632241
1371.3824105944368,0.8490070526121415
1373.9023567847216,0.8558812413955255
1376.3912265713043,0.8625847230041671
1378.9097244082113,0.8692762480835662
1381.3971639082774,0.8757864794469838
1383.914214640121,0.8822623555186853
1386.4002250862322,0.8885325444532571
1388.9158299598967,0.894730763536802
1391.4307079939972,0.9007566958398375
1393.9145728441363,0.9065149275228342
1396.4280068914595,0.9121165032879467
1398.9104457665926,0.9173947375651443
1401.422437070447,0.9224437343201517
1403.9034511981918,0.9271058630751887
1406.4140010004412,0.9314569171882519
1408.893591607004,0.9353540062898476
1411.4027011481012,0.9388534314139951
1413.8808694582804,0.9418333435587835
1416.388539977259,0.9443296185905052
1418.8954870924463,0.9462678097896359
1421.3715199489052,0.9476030139455328
1423.877029901585,0.9483392624272795
1426.3516435212223,0.9484347331309968
1428.8557175468777,0.9478718972671014
1431.3289131495767,0.9466497823212693
1433.8315524822574,0.9447292672765764
1436.3033312865118,0.9421530955093714
1438.8045371588632,0.9388607118521982
1441.2749003817698,0.9349394973475487
1443.7746740250223,0.9303078008465858
1446.2436228822844,0.9250965126399766
1448.7419655262602,0.9192034276378716
1451.2095012321843,0.9127998725513455
1453.7064141053015,0.9057638893239649
1456.1725378728079,0.8983025179766887
1458.6680222020732,0.8902751783587023
1461.1327352426997,0.8819186790548599
1463.6267922537227,0.8730753426667662
1466.090095777603,0.8640050725104212
1468.582726694589,0.8545350476492363
1471.044621910496,0.8449413488944357
1473.5358279562424,0.8350383852743979
1475.996316071556,0.8251116763962918
1478.4860984674815,0.8149655979835779
1480.9451806882025,0.8048888713951987
1483.4335406543069,0.7946788422473553
1485.8912181850574,0.7846219103534223
1488.3781569399653,0.7745115385991466
1490.8344309839958,0.7646271032686758
1493.2900079848114,0.7548792501471142
1495.7748215041174,0.7451827590155227
1498.2289968168734,0.7357995306387712
1500.7123921617567,0.7265268663010761
1503.1651669862695,0.7176114817714294
1505.647145370498,0.708857151237014
1508.0985209052233,0.7004933922554469
1510.579083541168,0.6923328294320719
1513.02906098319,0.6845863398320043
1515.5082090818432,0.6770774119694337
1517.9567896268818,0.6699973097749702
1520.4046764008053,0.6632619958822105
1522.8817092402714,0.6568025856091015
1525.3282009046197,0.6507799669155193
1527.803822224585,0.6450510309794081
1530.2489199716838,0.639756109995817
1532.7231309783128,0.6347669900929407
1535.16683599912,0.630203494388533
1537.6098493197496,0.6260016497259181
1540.0819513813403,0.6221139341365021
1542.5235737559778,0.6186299402971318
1544.994268510025,0.6154593309779344
1547.4345011262485,0.6126720471713791
1549.8740435159852,0.610220200348439
1552.3426338181598,0.6080711002575332
1554.7807882247253,0.6062664740407578
1557.2479742165997,0.6047508191863975
1559.6847418242032,0.6035480799944208
1562.1505247037494,0.602614810780896
1564.5859066952507,0.6019582757769844
1567.0206005171167,0.6015491310953444
1569.4842852159818,0.6013687219393602
1571.9175951899415,0.601401991088554
