Raman Shift (cm-1),Fitted Intensity
159.26151312198635,0.03884605804842928
162.17892251266312,0.03933755627805908
165.06070388440276,0.039834070373502437
167.97629817665074,0.0403479308782319
170.89098012548493,0.04087360874180932
173.77006778237046,0.041405030874949296
176.68293717714914,0.04195542081189495
179.59489550712533,0.04251889121913074
182.50594319967058,0.04309590457802239
185.38144153980102,0.04367982461500149
188.29068006676243,0.04428522411052162
191.19900923170644,0.04490568421772698
194.07182265961455,0.045534096405603026
196.97834519226308,0.04618618278976122
199.8839596359394,0.04685508085661945
202.75409191031576,0.047533160262568375
205.65790225025557,0.04823743236719995
208.5608057718964,0.048960546616472936
211.42826064439942,0.04969429438994553
214.32936258615155,0.05045713968426946
217.22955897789507,0.051241193775519785
220.09434019320543,0.05203760514550241
222.9927375242005,0.05286648225333459
225.89023057112718,0.053719341337074365
228.75234186693342,0.054586613637569024
231.64803836756255,0.05549027842881752
234.54283184768065,0.05642119203866149
237.4022769547155,0.05736898239352193
240.2952763983085,0.058357767918264025
243.18737408261222,0.059377670462573376
246.04415672466348,0.060417414199556686
248.93446287752522,0.061503576040459425
251.82386852998388,0.06262545674917716
254.67799242389083,0.06377075841126063
257.565609045334,0.06496889746410507
260.41796602711474,0.06619324703022902
263.3037952786035,0.06747535980068123
266.18872612093764,0.06880293314251232
269.0384305290536,0.0701616399766567
271.9215764941182,0.07158667824320077
274.8038253026716,0.07306460432739743
277.65088083558294,0.07457962403067869
280.5313472549242,0.07617119007841144
283.37664243438485,0.07780448632419025
286.2553281173605,0.07952218865144209
289.13311872473423,0.08130854891966599
291.97577117291803,0.08314476823763059
294.85178352428557,0.08507904772153116
297.6926797004962,0.0870694525239506
300.5669154435891,0.08916836997461271
303.44025818556474,0.09135702861446253
306.2785177554506,0.09361264975083278
309.150086361853,0.09599478153384115
311.98659372863403,0.09845208496957301
314.85638984211255,0.10104951074711048
317.69114662786524,0.10373113499398898
320.55917188903913,0.1065678672896218
323.42630704161274,0.10953474257903276
326.25843576130865,0.1126008862306836
329.1238025236089,0.11584728988748447
331.9541847135806,0.11920390753147941
334.8177847211591,0.12275923273230423
337.6464219965019,0.12643633173608204
340.5082568828984,0.1303318613189258
343.3351508567066,0.1343611805933439
346.1952222534492,0.13862978389409425
349.0203745368344,0.14304443657816449
351.8786840734356,0.14772014704489012
354.7361080202609,0.15261371367948035
357.55864557949826,0.1576716077168834
360.4143101115624,0.16302438219241425
363.23511000427607,0.16855304911085622
366.08901674608205,0.17439928916569153
368.90808057645336,0.1804320415363436
371.7602311504961,0.18680468470797804
374.57756052071636,0.19337305765510931
377.42795654749716,0.20030273561872694
380.2435530577968,0.20743545829673782
383.0921961558306,0.21494940340912286
385.90606140446107,0.2226712694303587
388.7529531902692,0.2307921246955775
391.56508877352826,0.2391227727891441
394.41023086164205,0.2478673166636911
397.2206383738594,0.2568199327559255
400.0640323768239,0.2661977300662428
402.8727134103756,0.27577768206504605
405.71436093876036,0.2857896729792039
408.5213170840616,0.29599309114249384
411.36121974646085,0.30663013309509246
414.16645259197685,0.31744245349120886
417.00461199500205,0.32868383772976534
419.8081231272481,0.34007833534983267
422.6107791472823,0.3517480802456641
425.446331879084,0.36382666398408503
428.2472685572284,0.37601274262670653
431.0810820327788,0.388583965811069
433.88030095069917,0.4012232363233933
436.71237676973396,0.414214911140623
439.5098795071426,0.427227635076031
442.3402192674366,0.44055037192479685
445.1360074021177,0.4538395165097137
447.930943955329,0.4672245179808816
450.75868780728706,0.4808372712740524
453.5519121161087,0.4943208170110257
456.3779238904244,0.5079646123261601
459.1694375278166,0.5214069798349218
461.99371881542174,0.5349325758534901
464.7835233524238,0.5481790785750412
467.5724790401364,0.5612667253913018
470.39417274803054,0.5743068223242471
473.18142168360646,0.5869449319604977
476.00138886887726,0.5994402054690348
478.7869326185464,0.6114500797716106
481.60517486533354,0.6232181093215494
484.3890149934232,0.6344192901847305
487.17200899273666,0.6451524017935149
489.9876719528438,0.6554946827081566
492.76896466880135,0.6651582943426531
495.5829066375736,0.6743357446593901
498.3624996297294,0.6827711024522282
501.14124842855017,0.690542883757523
503.9526170105346,0.6977006466295261
506.7296684166504,0.704045753517531
509.505876786945,0.7096434898129086
512.3146755106209,0.7145271791121343
515.0891888150436,0.7185646141044634
517.8962728359329,0.7218416121755121
520.6690926264382,0.7242737009888532
523.4410713071484,0.7259032558426667
526.2455913408958,0.7267390157320767
529.0158788274384,0.726769836640107
531.785326356061,0.7260242302347654
534.5872859139781,0.7244983301192839
537.3550445639485,0.7222524145083621
540.1219644057746,0.7193013289475287
542.9213669927594,0.7156305144484778
545.686600267225,0.7113651245865757
548.4509958812232,0.7065068591451069
551.2478449957853,0.7010325646742109
554.0105563494981,0.6951215593401414
556.805701690384,0.688684235981881
559.5667303225964,0.6819284560543505
562.3269232040038,0.6748363709946352
565.0862807140293,0.6674658904168345
567.8780333537688,0.6597836629919788
570.6357112050464,0.6520332241913781
573.3925548263542,0.644184738872117
576.1817644509756,0.6362036025822485
578.9369307080196,0.6283403911609806
581.6912638744288,0.6205592895406901
584.4779339570123,0.6128271903680435
587.2305920494691,0.6053850301270007
589.9824181885451,0.5981941364030366
592.7665521958479,0.5912256829595731
595.5167055471175,0.584695647743214
598.2660280801974,0.5785659059163009
601.0145201715131,0.5728802079780747
603.7952814999189,0.5676195299794952
606.5421038421155,0.5629466095202249
609.2880968749887,0.5588293538478579
612.0663301881068,0.5552587392933539
614.8106557483188,0.55234607312125
617.554153129593,0.5500673906096004
620.2968227067649,0.5484408729606868
623.0716940541533,0.5474732485090307
625.8126991844802,0.5471978001715754
628.552877638358,0.5476050528508734
631.2922297897167,0.5486970588922887
634.0637452701958,0.5504973838466602
636.8014359932095,0.5529571401589212
639.5383015386324,0.5560837390557243
642.3073015987065,0.5599128501853406
645.0425079771339,0.5643355373662138
647.7768903008473,0.569372183938954
650.5104489421938,0.5749979193223654
653.2431842732913,0.5811844383587575
656.0080062575216,0.5879841601982652
658.7390861754284,0.595200147333175
661.4693439025905,0.6028726431753997
664.1987798102273,0.6109614268264385
666.9602641357596,0.6195279742907904
669.6880476268889,0.628323235651956
672.4150104152941,0.6374006996675833
675.141152871307,0.6467127489647083
677.8993055782594,0.6563263034262647
680.6237986072192,0.6659631992852032
683.3474724178923,0.6756883309212165
686.0703273797008,0.685454054285272
688.7923638618704,0.6952143328441317
691.5463630106569,0.7050420860825597
694.2667537902307,0.7146626696317626
696.9863272009134,0.7241576568674738
699.705083611032,0.733496882217149
702.4230233886883,0.7426572431754691
705.1728783546314,0.7517312001116931
707.8891761429404,0.7604990646634389
710.6046584062024,0.7690795350446021
713.3193255116239,0.7774978197917267
716.033177826208,0.7857979022015595
718.7462157167283,0.7940458762304398
721.491111983778,0.8024338748013461
724.2025123243511,0.8108836094853051
726.9130993442814,0.819645124850788
729.6228734094693,0.8288987618422445
732.3318348855792,0.8388501918036764
735.0399841380749,0.849720485102508
737.7799351068679,0.8618813605977068
740.4864512328204,0.8752367197309465
743.1921562345997,0.8900533507967214
745.8970504767931,0.906357878909338
748.6011343237551,0.9240313933233865
751.3044081396256,0.94277127206863
754.0394271625555,0.9622994942519926
756.741072259374,0.9814206774496647
759.4419084205874,0.999457987328879
762.1419360094733,1.0153820974490342
764.8411553890837,1.0281322280863774
767.539566922238,1.0367267387299481
770.2371709715626,1.0403779710468353
772.9339678994475,1.03859260741472
775.6624349602753,1.0311179107646231
778.3576090181923,1.0183915130727246
781.0519770449282,1.0009762232908803
783.7455394020071,0.9797784358154302
786.4382964507422,0.9558902799831573
789.1302485522319,0.9304739313462893
791.8213960673565,0.9046510518337293
794.5117393567816,0.8794126854523174
797.2012787809545,0.8555590668305082
799.922404211542,0.8334220363760988
802.6103273114531,0.8138963551680322
805.2974476305062,0.7968760784394534
807.9837655282827,0.7823764054601142
810.6692813641639,0.7702990478399966
813.3539954973021,0.7604718889820052
816.037908286642,0.752682397406219
818.7210200909067,0.7467029501392691
821.4033312686151,0.7423080482375078
824.0848421780756,0.7392845530167712
826.7655531773598,0.7374365864306761
829.4777478409233,0.7365819604297973
832.1568504666102,0.7365797191601232
834.8351542594137,0.7372699327216181
837.5126595765614,0.7385216331241664
840.1893667750774,0.7402146935399526
842.8652762117599,0.7422378835006849
845.5403882432074,0.7444873434790897
848.2147032257963,0.7468654793419646
850.8882215157028,0.7492802342118222
853.5609434688704,0.7516446785378034
856.2328694410462,0.7538768573358785
858.9039997877626,0.7558998391803724
861.5743348643446,0.7576419202608049
864.2438750258916,0.7590369464538471
866.9126206273068,0.7600247260778873
869.5805720232747,0.760551515848434
872.2477295682729,0.7605705732101239
874.9140936165568,0.7600427809764735
877.5796645221853,0.7589373672518771
880.2444426389957,0.7572327687497524
882.9084283206321,0.754917725850489
885.5716219205024,0.7519927666771054
888.2340237918252,0.7484723632168262
890.8956342876045,0.7443882869506637
893.5564537606224,0.7397952008263425
896.2164825634645,0.7347806740211055
898.8757210485091,0.7294846541884288
901.566194253428,0.7240780891308447
904.2238436478765,0.7191261533273796
906.88070378462,0.7154811639309672
909.5047788508018,0.7153171578051108
912.1600710251078,0.7233944489363457
914.8145749914547,0.7440224053791513
917.4682911007549,0.7651297316468957
920.1212197037094,0.7592215958738445
922.7733611508156,0.7269699564748734
925.4247157923564,0.6962827746024818
928.0752839784072,0.678941631434903
930.725066058847,0.6705795918515564
933.3740623833291,0.6662499134289709
936.0222733013143,0.6633298519861304
938.669699162052,0.6602308210053954
941.3163403145809,0.6557128924141186
943.9621971077358,0.6487498995453485
946.607269890148,0.6385864020414356
949.2515590102339,0.6248316737032991
951.8950648162136,0.6075186002051932
954.5377876560888,0.5870938087842242
957.1797278776648,0.5643355333377038
959.8208858285398,0.5402207335354127
962.4612618561077,0.5157781194150539
965.1008563075484,0.49196631367206034
967.7396695298376,0.4696091309271448
970.3777018697583,0.449409759849243
973.0149536738754,0.4320556976567435
975.65142528855,0.41839309473575725
978.2871170599428,0.40951382095281735
980.8902880408277,0.40632820106294426
983.5244305486303,0.4081164406739622
986.1577942462391,0.41113782109665475
988.7903794789963,0.4089570107960694
991.4221865920408,0.3965913854185405
994.0532159303111,0.3746553446527414
996.6834678385349,0.3486922129782727
999.3129426612431,0.32453326753914696
1001.9416407427561,0.30494122792725353
1004.5695624271975,0.2898140576721347
1007.1967080584836,0.2779439848567267
1009.8230779803271,0.26820714201486584
1012.4170434801454,0.259964529665558
1015.041872349022,0.2525935166706165
1017.665926534246,0.24595586018793147
1020.2892063787294,0.23990286079387313
1022.9117122251773,0.2343386189348949
1025.5334444160871,0.22919718907467015
1028.15440329376,0.2244305559623137
1030.7745892002931,0.22000200428742425
1033.3940024775802,0.215882284805057
1035.9810981708106,0.21209189360329
1038.598976513018,0.20851817181725688
1041.2160832463414,0.20519134927805516
1043.832418711885,0.20209589530367134
1046.447983250535,0.19921797970860103
1049.0627772029802,0.19654516502293023
1051.676800909714,0.19406618310812007
1054.290054711022,0.19177076880825558
1056.8710678120515,0.1896740880294751
1059.48279208834,0.18771647146391612
1062.093747474777,0.1859165960779136
1064.7039343108554,0.18426717000777962
1067.313352935871,0.1827614786517834
1069.9220036889128,0.18139333791771584
1072.4984711957586,0.18017118505409654
1075.105596462614,0.17906002167905305
1077.7119548694973,0.17807071390451185
1080.317546754708,0.1771988347202843
1082.9223724563308,0.17644032630157033
1085.5264323122756,0.17579147678336718
1088.1297266602414,0.17524889911654679
1090.700904617097,0.17481420275403947
1093.3026781742628,0.1744740180490208
1095.90368723129,0.1742317370285886
1098.5039321250988,0.1740850919233963
1101.1034131923952,0.17403205878502997
1103.6708254619662,0.17406983789943864
1106.2687890782108,0.17419779331978325
1108.8659898728438,0.17441465026927147
1111.4624281817887,0.17471924636099456
1114.0581043407765,0.1751106125871305
1116.6217591897112,0.1755817056340888
1119.2159212276165,0.17614341744560952
1121.8093221175222,0.17679008857058065
1124.4019621943662,0.17752145730774885
1126.9938417929043,0.1783374271728687
1129.5537474636767,0.17922670779515787
1132.1441162613737,0.18021121004137852
1134.7337255797866,0.18128097858911657
1137.322575752878,0.18243654799847292
1139.9106671144218,0.18367860719025025
1142.466831825419,0.1849914587511436
1145.0534156966605,0.18640810958423332
1147.6392417524658,0.1879142272308521
1150.2243103258224,0.18951111779634952
1152.7774899721844,0.19117933909415052
1155.3610536951164,0.19296118625420372
1157.9438609293902,0.19483865870416567
1160.5259120072114,0.19681370745891713
1163.1072072606003,0.1988884533748358
1165.6566606759006,0.20103834904500723
1168.2364543720396,0.20331827881365433
1170.8154932346333,0.20570529898122444
1173.3937775949307,0.20820225457782254
1175.940257690534,0.2107800563816185
1178.5170431196166,0.21350478681157392
1181.0930750349762,0.2163491455366606
1183.6683537670833,0.21931679857916656
1186.2118657414467,0.2223735760221508
1188.7856481622657,0.22559811325976423
1191.3586783861065,0.228958266837581
1193.9309567426717,0.2324586462720174
1196.471505782134,0.23605931421685827
1199.0422904412299,0.2398531731675405
1201.6123242170252,0.24380260309206042
1204.1506566845674,0.24786278549594015
1206.7191987172919,0.25213867108397425
1209.2869908489847,0.25658800866224296
1211.8540334080099,0.26121738596869193
1214.389411983815,0.26597453549443334
1216.9549654029506,0.27098263025415514
1219.5197702293917,0.27619233239296026
1222.0529389950316,0.2815449297724001
1224.61625662804,0.2871790664936857
1227.1788266466283,0.29303923084755557
1229.7406493778217,0.29913421251378464
1232.2708732581305,0.305395229091797
1234.8312113884967,0.3119842375044181
1237.3908032074723,0.3188359502574983
1239.9188240118929,0.32587265197474485
1242.4769331685857,0.333275800073727
1245.0342969881858,0.3409712628904772
1247.560117592806,0.3488708802960285
1250.116000685306,0.3571771906502865
1252.6711394133126,0.36580548025903714
1255.194762689218,0.37465525916221254
1257.7484226219312,0.3839512857125694
1260.3013391610693,0.39359600253661897
1262.822767974354,0.4034742584049479
1265.3742076466478,0.41383330825478915
1267.924904894593,0.42455985130561846
1270.4441421063602,0.4355212737416291
1272.993364412563,0.44698617412664093
1275.5418452619597,0.4588219432832923
1278.0588937283464,0.47087536269536895
1280.6059015577484,0.4834331462110407
1283.1521688962057,0.4963393759435011
1285.6670314683906,0.5094172215566247
1288.2118277052796,0.522965696525292
1290.755884415401,0.5368019193631322
1293.2685639396113,0.5507236864451032
1295.811151463251,0.5650339461195022
1298.3530004226377,0.5795212409709819
1300.8634997401532,0.5939594840769064
1303.403881424827,0.6086457749539794
1305.9129317732186,0.6231663905416202
1308.4518474532706,0.6378095112449272
1310.9900261682633,0.6523270094711358
1313.4969010306886,0.6664737052801294
1316.0336156473168,0.6805195572773721
1318.5695942569437,0.6942149263806091
1321.074296461582,0.7073290171987319
1323.6088128757874,0.720112846459559
1326.112071126503,0.7321968097618247
1328.6451266095319,0.7438214352400467
1331.1774476773753,0.7547915009840874
1333.6785379692556,0.7649549391563215
1336.209400003383,0.7745406270761401
1338.7090494631484,0.7833123382232837
1341.2384537241596,0.7914924700185648
1343.76712515721,0.7989917588161646
1346.2646113435585,0.8057658074289704
1348.7918268954818,0.8120247851752976
1351.2878753625337,0.8176708771831479
1353.8136362903097,0.8229024206606892
1356.338665972784,0.8277131195010383
1358.832555838333,0.8321189914577197
1361.3561327831994,0.8362945779035558
1363.8485880333137,0.8402030972706692
1366.3707134939323,0.8440007177118183
1368.8921092873425,0.8476943913909433
1371.3824105944368,0.8512893371497273
1373.9023567847216,0.8549139185229967
1376.3912265713043,0.8585126127657788
1378.9097244082113,0.8621968382315133
1381.3971639082774,0.865892438804529
1383.914214640121,0.8696957379240491
1386.4002250862322,0.8735129336030873
1388.9158299598967,0.8774270014830544
1391.4307079939972,0.8813740691276081
1393.9145728441363,0.8852820503712254
1396.4280068914595,0.889216046020087
1398.9104457665926,0.8930464461109162
1401.422437070447,0.8968269776073622
1403.9034511981918,0.9004241079886455
1406.4140010004412,0.903879930765156
1408.893591607004,0.9070647033050947
1411.4027011481012,0.9100082278959025
1413.8808694582804,0.9125927459863578
1416.388539977259,0.9148348980047515
1418.8954870924463,0.9166563212462583
1421.3715199489052,0.9180017523209358
1423.877029901585,0.9188663259292968
1426.3516435212223,0.9191964641857086
1428.8557175468777,0.9189719582987651
1431.3289131495767,0.918175850813041
1433.8315524822574,0.916771922631341
1436.3033312865118,0.9147835802990636
1438.8045371588632,0.9121580979404511
1441.2749003817698,0.9089608661395636
1443.7746740250223,0.9051223572235896
1446.2436228822844,0.900749363842188
1448.7419655262602,0.8957555124247627
1451.2095012321843,0.8902863446471615
1453.7064141053015,0.8842389170005696
1456.1725378728079,0.877793112597864
1458.6680222020732,0.8708300907533447
1461.1327352426997,0.8635583619599346
1463.6267922537227,0.8558443220700322
1466.090095777603,0.8479185975426122
1468.582726694589,0.8396344466341137
1471.044621910496,0.8312378025811035
1473.5358279562424,0.8225708889231168
1475.996316071556,0.8138882721662373
1478.4860984674815,0.8050236569739891
1480.9451806882025,0.7962340378704938
1483.4335406543069,0.7873474244325177
1485.8912181850574,0.7786177220597216
1488.3781569399653,0.7698702460802093
1490.8344309839958,0.7613510977450324
1493.2900079848114,0.7529868563521328
1495.7748215041174,0.7447091743475268
1498.2289968168734,0.7367454560574819
1500.7123921617567,0.728927319671132
1503.1651669862695,0.7214661223068441
1505.647145370498,0.7142007639004331
1508.0985209052233,0.707324501541436
1510.579083541168,0.700685788043248
1513.02906098319,0.6944583021488948
1515.5082090818432,0.6885019417547741
1517.9567896268818,0.6829698079779541
1520.4046764008053,0.6777955945235551
1522.8817092402714,0.6729286231426703
1525.3282009046197,0.6684901630410226
1527.803822224585,0.6643742621715637
1530.2489199716838,0.6606806925533821
1532.7231309783128,0.6573183156692405
1535.16683599912,0.6543655234119917
1537.6098493197496,0.6517753979042994
1540.0819513813403,0.6495171887866964
1542.5235737559778,0.6476380059440733
1544.994268510025,0.6460830059256324
1547.4345011262485,0.6448792198826375
1549.8740435159852,0.6439939443085658
1552.3426338181598,0.6434084244814777
1554.7807882247253,0.6431214901584168
1557.2479742165997,0.6431089202395681
1559.6847418242032,0.6433523805585514
1562.1505247037494,0.643837132684733
1564.5859066952507,0.6445294341913221
1567.0206005171167,0.6454102065058451
1569.4842852159818,0.6464678777666071
