Raman Shift (cm-1),Fitted Intensity
159.26151312198635,0.008521755190306226
162.17892251266312,0.008615507534196383
165.06070388440276,0.008709781369335087
167.97629817665074,0.008806890782098125
170.89098012548493,0.008905754268151923
173.77006778237046,0.00900520854142466
176.68293717714914,0.009107697075525554
179.59489550712533,0.00921208155282408
182.50594319967058,0.00931841284814084
185.38144153980102,0.009425442043972566
188.29068006676243,0.009535802226072755
191.19900923170644,0.009648272491615597
194.07182265961455,0.009761533793722216
196.97834519226308,0.009878375591637123
199.8839596359394,0.00999750947204041
202.75409191031576,0.010117540538036943
205.65790225025557,0.01024142849567572
208.5608057718964,0.010367812041342085
211.42826064439942,0.010495214082178666
214.32936258615155,0.010626780143124882
217.22955897789507,0.010761070082911975
220.09434019320543,0.010896517555510082
222.9927375242005,0.011036471445621447
225.89023057112718,0.011179406185638686
228.75234186693342,0.011323658307963986
231.64803836756255,0.011472799890158288
234.54283184768065,0.011625212623819664
237.4022769547155,0.011779127124110831
240.2952763983085,0.011938361176893267
243.18737408261222,0.012101195596843103
246.04415672466348,0.01226574522471311
248.93446287752522,0.012436099227566007
251.82386852998388,0.012610428478711931
254.67799242389083,0.01278672097306511
257.565609045334,0.012969366676358025
260.41796602711474,0.013154163124799832
263.3037952786035,0.013345718886397788
266.18872612093764,0.013541998758510062
269.0384305290536,0.013740751101931377
271.9215764941182,0.013946944698862951
274.8038253026716,0.014158404903775486
277.65088083558294,0.01437271654087676
280.5313472549242,0.014595252323266961
283.37664243438485,0.014820929934801965
286.2553281173605,0.015055418921622439
289.13311872473423,0.015296282634532378
291.97577117291803,0.015540795520387752
294.85178352428557,0.01579512297440052
297.6926797004962,0.016053495058821598
300.5669154435891,0.016322445870990902
303.44025818556474,0.01659923759135564
306.2785177554506,0.016880782211474796
309.150086361853,0.01717423976894907
311.98659372863403,0.017473020730919452
314.85638984211255,0.017784760436078118
317.69114662786524,0.018102501102813934
320.55917188903913,0.01843441276847513
323.42630704161274,0.018777294188050367
326.25843576130865,0.019127478052113
329.1238025236089,0.019494084164322485
331.9541847135806,0.019869128485308595
334.8177847211591,0.020262492533886584
337.6464219965019,0.02066574229946372
340.5082568828984,0.021089661425044193
343.3351508567066,0.021525344639968656
346.1952222534492,0.02198466166769884
349.0203745368344,0.02245821456203679
351.8786840734356,0.022959200357576343
354.7361080202609,0.023484102088706698
357.55864557949826,0.024028563807893987
360.4143101115624,0.024608398214375608
363.23511000427607,0.02521284089839037
366.08901674608205,0.025860000198788872
368.90808057645336,0.026538461444923323
371.7602311504961,0.027269212436156372
374.57756052071636,0.028040061730041803
377.42795654749716,0.028875601669818757
380.2435530577968,0.029762651565912186
383.0921961558306,0.030730289385091786
385.90606140446107,0.031764002306804644
388.7529531902692,0.03289839849782612
391.56508877352826,0.03411710369331844
394.41023086164205,0.035461461176286686
397.2206383738594,0.03691245368706094
400.0640323768239,0.03851950793935034
402.8727134103756,0.04025985877138738
405.71436093876036,0.04219247514888688
408.5213170840616,0.044289346994491434
411.36121974646085,0.046620505521961654
414.16645259197685,0.04915075119539546
417.00461199500205,0.051962694652966136
419.8081231272481,0.055011526310288696
422.6107791472823,0.058351762073264
425.446331879084,0.06205244110302666
428.2472685572284,0.06604885112188298
431.0810820327788,0.0704609413698904
433.88030095069917,0.07520648717914943
436.71237676973396,0.08042221267864748
439.5098795071426,0.0860047698188565
442.3402192674366,0.09210824500001816
445.1360074021177,0.09860458929052832
447.930943955329,0.10557846803545674
450.75868780728706,0.11313478376868295
453.5519121161087,0.12110247671877607
456.3779238904244,0.1296788320152624
459.1694375278166,0.13866078974508436
461.99371881542174,0.14826134835794832
464.7835233524238,0.1582435321449814
467.5724790401364,0.16870479422264884
470.39417274803054,0.17975940473176458
473.18142168360646,0.19111683894535825
476.00138886887726,0.2030146646422479
478.7869326185464,0.21512446477545125
481.60517486533354,0.22768064800221016
484.3890149934232,0.24031429705821628
487.17200899273666,0.2530881708525647
489.9876719528438,0.26605288887271134
492.76896466880135,0.2787738483207898
495.5829066375736,0.2914055481469205
498.3624996297294,0.3034726912983229
501.14124842855017,0.3149306031717793
503.9526170105346,0.3256841256412714
506.7296684166504,0.3352440406563606
509.505876786945,0.34351031819822864
512.3146755106209,0.35033264598256786
515.0891888150436,0.3553540541891807
517.8962728359329,0.3585452760411065
520.6690926264382,0.359743762578308
523.4410713071484,0.35898304561301464
526.2455913408958,0.3562751716443792
529.0158788274384,0.3518069327019094
531.785326356061,0.3457319722976338
534.5872859139781,0.33816430602731823
537.3550445639485,0.32951784231213643
540.1219644057746,0.3199457011321677
542.9213669927594,0.3095471691906702
545.686600267225,0.298780621357729
548.4509958812232,0.2877119563509392
551.2478449957853,0.276367297083661
554.0105563494981,0.2651553847561869
556.805701690384,0.25392398425697255
559.5667303225964,0.2430365966497356
562.3269232040038,0.23243672892398648
565.0862807140293,0.22218817833653848
567.8780333537688,0.21222673443290654
570.6357112050464,0.2028316085605374
573.3925548263542,0.19391472005779256
576.1817644509756,0.18540360995676577
578.9369307080196,0.1775205190984703
581.6912638744288,0.17017488688962848
584.4779339570123,0.16329711006132558
587.2305920494691,0.1570555837271143
589.9824181885451,0.15136583061083875
592.7665521958479,0.14616652965442967
595.5167055471175,0.1415756943142031
598.2660280801974,0.1375198187524302
601.0145201715131,0.13398843512211672
603.7952814999189,0.1309360252724229
606.5421038421155,0.12842157528038892
609.2880968749887,0.12639119805780671
612.0663301881068,0.12481385282053856
614.8106557483188,0.12371175374691859
617.554153129593,0.12304833671471453
620.2968227067649,0.12280913911628129
623.0716940541533,0.12298504968130916
625.8126991844802,0.12355924953812307
628.552877638358,0.12452025761123829
631.2922297897167,0.12585853737692196
634.0637452701958,0.12758914514146602
636.8014359932095,0.12966504680308982
639.5383015386324,0.1321009910070061
642.3073015987065,0.13493144531741225
645.0425079771339,0.1380900234038088
647.7768903008473,0.14161175255838
650.5104489421938,0.14550270865882267
653.2431842732913,0.14977165212561394
656.0080062575216,0.1544886865844998
658.7390861754284,0.15955610406131177
661.4693439025905,0.16504516945770167
664.1987798102273,0.17097650014088916
666.9602641357596,0.17745401518100798
669.6880476268889,0.18435110266465204
672.4150104152941,0.19177297445277655
675.141152871307,0.19975437365721083
677.8993055782594,0.2084412126954211
680.6237986072192,0.21767003372125374
683.3474724178923,0.2275879301721023
686.0703273797008,0.2382468736902484
688.7923638618704,0.2497036245115954
691.5463630106569,0.26217377206899206
694.2667537902307,0.27542781483800327
696.9863272009134,0.289680651736633
699.705083611032,0.3050088558341757
702.4230233886883,0.3214934388295045
705.1728783546314,0.3394406686641469
707.8891761429404,0.35851161522166397
710.6046584062024,0.3790009133831492
713.3193255116239,0.4009960501653959
716.033177826208,0.4245802438006857
718.7462157167283,0.4498282348884624
721.491111983778,0.47713642009432206
724.2025123243511,0.5058944243410374
726.9130993442814,0.5364259333825481
729.6228734094693,0.5686988830959891
732.3318348855792,0.6026271057265896
735.0399841380749,0.6380555931508082
737.7799351068679,0.6751930302585631
740.4864512328204,0.7128106579638805
743.1921562345997,0.7508868944997016
745.8970504767931,0.7888404072168796
748.6011343237551,0.8259632062531559
751.3044081396256,0.8614299002468467
754.0394271625555,0.8946981670964183
756.741072259374,0.9239939743803879
759.4419084205874,0.948762891304192
762.1419360094733,0.9681108071424498
764.8411553890837,0.9812919826607259
767.539566922238,0.9877783582840325
770.2371709715626,0.9873124060917094
772.9339678994475,0.9799340782560966
775.6624349602753,0.9657707368381352
778.3576090181923,0.9457597672371743
781.0519770449282,0.9205678313411486
783.7455394020071,0.8911214541654415
786.4382964507422,0.8584041155015029
789.1302485522319,0.8233910652147537
791.8213960673565,0.7869983358147297
794.5117393567816,0.7500486984405467
797.2012787809545,0.7132541477530888
799.922404211542,0.6767848250202837
802.6103273114531,0.6420036097778371
805.2974476305062,0.6088659064166647
807.9837655282827,0.5776898212254493
810.6692813641639,0.5487334203737231
813.3539954973021,0.5222100258577204
816.037908286642,0.4983002101698373
818.7210200909067,0.47715948252491386
821.4033312686151,0.4589211296348676
824.0848421780756,0.44369412428958116
826.7655531773598,0.431556475149846
829.4777478409233,0.42245534663502005
832.1568504666102,0.416589504514966
834.8351542594137,0.41374608892881554
837.5126595765614,0.41376003504752024
840.1893667750774,0.4163787228345689
842.8652762117599,0.421259617019764
845.5403882432074,0.4279753614318809
848.2147032257963,0.43602728805642343
850.8882215157028,0.44486735974480734
853.5609434688704,0.45392749276894045
856.2328694410462,0.462654143758363
858.9039997877626,0.4705451551412734
861.5743348643446,0.4771852845785299
864.2438750258916,0.48227670919995846
866.9126206273068,0.4856611445402014
869.5805720232747,0.48733102468345696
872.2477295682729,0.4874283521893023
874.9140936165568,0.48623118083163924
877.5796645221853,0.4841290439905206
880.2444426389957,0.48158978951759707
882.9084283206321,0.47912106479659433
885.5716219205024,0.4772300118256819
888.2340237918252,0.47638455760610926
890.8956342876045,0.4769790769680092
893.5564537606224,0.4793062920163106
896.2164825634645,0.4835362376090415
898.8757210485091,0.48970218087263395
901.566194253428,0.49779924518148105
904.2238436478765,0.5073726663623248
906.88070378462,0.5181034958339024
909.5047788508018,0.5293132229777068
912.1600710251078,0.5406229107979889
914.8145749914547,0.5511496431810097
917.4682911007549,0.5600982694884212
920.1212197037094,0.5666876265490065
922.7733611508156,0.5702230884154766
925.4247157923564,0.5701706245408452
928.0752839784072,0.5662169036336914
930.725066058847,0.558300258225413
933.3740623833291,0.5466040528922548
936.0222733013143,0.5315148212218554
938.669699162052,0.5135574187494405
941.3163403145809,0.4933239396265684
943.9621971077358,0.4714111763382604
946.607269890148,0.4483752796637935
949.2515590102339,0.42470554412973477
951.8950648162136,0.40081445034572405
954.5377876560888,0.377038987174031
957.1797278776648,0.3536482859673009
959.8208858285398,0.3308537193253369
962.4612618561077,0.30881900868590734
965.1008563075484,0.28766907610578785
967.7396695298376,0.26749720461426246
970.3777018697583,0.24837055681771955
973.0149536738754,0.23033433059117397
975.65142528855,0.213414897289154
978.2871170599428,0.19762224575401974
980.8902880408277,0.18312211938284656
983.5244305486303,0.16954411151131607
986.1577942462391,0.1570439821832462
988.7903794789963,0.14558455471046125
991.4221865920408,0.13512086999029652
994.0532159303111,0.1256017504742267
996.6834678385349,0.11697132756326195
999.3129426612431,0.10917050629229919
1001.9416407427561,0.10213833858846288
1004.5695624271975,0.09581327835156705
1007.1967080584836,0.09013429649089945
1009.8230779803271,0.0850418405483588
1012.4170434801454,0.08053067689698204
1015.041872349022,0.07643692587708285
1017.665926534246,0.072767634953662
1020.2892063787294,0.06947545032421704
1022.9117122251773,0.06651689548618749
1025.5334444160871,0.06385243742248324
1028.15440329376,0.061446451441253915
1030.7745892002931,0.059267103452972286
1033.3940024775802,0.05728616806196287
1035.9810981708106,0.05549963089808195
1038.598976513018,0.05384239221508982
1041.2160832463414,0.052318322629296685
1043.832418711885,0.050911067148247946
1046.447983250535,0.04960655140386603
1049.0627772029802,0.04839271120778684
1051.676800909714,0.04725923780007717
1054.290054711022,0.046197342397237134
1056.8710678120515,0.0452112085177567
1059.48279208834,0.04427047342330676
1062.093747474777,0.04338210158063088
1064.7039343108554,0.04254145746593611
1067.313352935871,0.041744576236382225
1069.9220036889128,0.040988054349296886
1072.4984711957586,0.04027740838866391
1075.105596462614,0.039592784902458565
1077.7119548694973,0.03894084873220864
1080.317546754708,0.038319651052089336
1082.9223724563308,0.0377274715701838
1085.5264323122756,0.0371627822301528
1088.1297266602414,0.036624217596846184
1090.700904617097,0.03611659582162645
1093.3026781742628,0.035626438410083
1095.90368723129,0.0351590775869344
1098.5039321250988,0.03471359773036135
1101.1034131923952,0.034289163097494746
1103.6708254619662,0.03388976073021459
1106.2687890782108,0.033504955736077834
1108.8659898728438,0.0331390975978083
1111.4624281817887,0.03279159836985674
1114.0581043407765,0.03246192035619379
1116.6217591897112,0.03215323487416744
1119.2159212276165,0.031857571274328304
1121.8093221175222,0.0315783936707283
1124.4019621943662,0.031315339338679186
1126.9938417929043,0.031068085539254865
1129.5537474636767,0.030839049463028408
1132.1441162613737,0.030622402544299966
1134.7337255797866,0.030420824838274282
1137.322575752878,0.03023414972868374
1139.9106671144218,0.030062250835744653
1142.466831825419,0.029906850096963672
1145.0534156966605,0.029764115651565372
1147.6392417524658,0.029636033981487744
1150.2243103258224,0.02952265593514443
1152.7774899721844,0.02942518231400005
1155.3610536951164,0.029341390346933532
1157.9438609293902,0.029272772938292592
1160.5259120072114,0.029219608618139166
1163.1072072606003,0.029182245198060515
1165.6566606759006,0.029161262178298147
1168.2364543720396,0.029156647810437294
1170.8154932346333,0.029169351044581814
1173.3937775949307,0.02920006443434714
1175.940257690534,0.029248875586772104
1178.5170431196166,0.02931788170221092
1181.0930750349762,0.029407644831296306
1183.6683537670833,0.029519345541519672
1186.2118657414467,0.02965254397513585
1188.7856481622657,0.029811965448858422
1191.3586783861065,0.029997793544049543
1193.9309567426717,0.03021188068311525
1196.471505782134,0.03045314604349683
1199.0422904412299,0.030729716454793242
1201.6123242170252,0.031041326308504705
1204.1506566845674,0.03138625833507964
1206.7191987172919,0.031775872768124006
1209.2869908489847,0.0322094326868607
1211.8540334080099,0.03269044503730866
1214.389411983815,0.033215961897949696
1216.9549654029506,0.03380282834957615
1219.5197702293917,0.03444930716998957
1222.0529389950316,0.03515107881657459
1224.61625662804,0.03593014223375171
1227.1788266466283,0.03678354990554497
1229.7406493778217,0.03771679190441808
1232.2708732581305,0.03872281441977006
1234.8312113884967,0.03983209524606088
1237.3908032074723,0.04103912051102178
1239.9188240118929,0.04233387818536575
1242.4769331685857,0.04375448722931009
1245.0342969881858,0.045292545268028006
1247.560117592806,0.04693410873823177
1250.116000685306,0.048726061427506
1252.6711394133126,0.05065607944455041
1255.194762689218,0.05270517522030273
1257.7484226219312,0.05493007804878415
1260.3013391610693,0.05731336852718955
1262.822767974354,0.059829827886048
1265.3742076466478,0.06254700714171503
1267.924904894593,0.06544114869806887
1270.4441421063602,0.0684796291623795
1272.993364412563,0.07174162640094876
1275.5418452619597,0.07519582326885894
1278.0588937283464,0.07880112703565115
1280.6059015577484,0.08264889445208044
1283.1521688962057,0.08669912904230177
1285.6670314683906,0.09090138181752194
1288.2118277052796,0.09535936097330347
1290.755884415401,0.10002339708090136
1293.2685639396113,0.10483297276086698
1295.811151463251,0.10990371275858736
1298.3530004226377,0.1151753165048865
1300.8634997401532,0.12057653737837545
1303.403881424827,0.12623346011791584
1305.9129317732186,0.13200255365121527
1308.4518474532706,0.13801525796117226
1310.9900261682633,0.1441906955399233
1313.4969010306886,0.1504376306018887
1316.0336156473168,0.15689138356161902
1318.5695942569437,0.16345599247076864
1321.074296461582,0.17002636802363227
1323.6088128757874,0.17673415914865948
1326.112071126503,0.18338496385047776
1328.6451266095319,0.190102697966476
1331.1774476773753,0.1967624715611454
1333.6785379692556,0.20323725715679306
1336.209400003383,0.2096320485624901
1338.7090494631484,0.2157371456497724
1341.2384537241596,0.22164274711591697
1343.76712515721,0.22721337738259356
1346.2646113435585,0.23233167297935775
1348.7918268954818,0.23707022887832951
1351.2878753625337,0.24127083756103104
1353.8136362903097,0.24500136895780938
1356.338665972784,0.24818515890311565
1358.832555838333,0.25078561093438334
1361.3561327831994,0.2528726677891839
1363.8485880333137,0.25441658466012346
1366.3707134939323,0.25548903645719057
1368.8921092873425,0.25611367465541157
1371.3824105944368,0.2563441295703428
1373.9023567847216,0.2562455215472393
1376.3912265713043,0.2558816456984341
1378.9097244082113,0.25530638505198144
1381.3971639082774,0.25459354004762114
1383.914214640121,0.2537830888069047
1386.4002250862322,0.2529463180325485
1388.9158299598967,0.25210989405966094
1391.4307079939972,0.25132548676447475
1393.9145728441363,0.25063634787654016
1396.4280068914595,0.25005494196327716
1398.9104457665926,0.24961854888146098
1401.422437070447,0.24933485710216735
1403.9034511981918,0.24922381887847367
1406.4140010004412,0.24929134253664914
1408.893591607004,0.2495398766127551
1411.4027011481012,0.24997532920522153
1413.8808694582804,0.2505829433237495
1416.388539977259,0.25136908400626784
1418.8954870924463,0.25231472682147765
1421.3715199489052,0.25338911016450644
1423.877029901585,0.25459758359272494
1426.3516435212223,0.255886430224862
1428.8557175468777,0.257257998792621
1431.3289131495767,0.2586467351425826
1433.8315524822574,0.26004979488527485
1436.3033312865118,0.2613940343807988
1438.8045371588632,0.26266961515906934
1441.2749003817698,0.2638020559544401
1443.7746740250223,0.2647737197872815
1446.2436228822844,0.2655170826350348
1448.7419655262602,0.26600726978897843
1451.2095012321843,0.26619341911209254
1453.7064141053015,0.2660452237689286
1456.1725378728079,0.2655381469499325
1458.6680222020732,0.2646388024611725
1461.1327352426997,0.26335657666120643
1463.6267922537227,0.2616568768537061
1466.090095777603,0.2595866340762505
1468.582726694589,0.2571106219730373
1471.044621910496,0.25431199439749924
1473.5358279562424,0.25115404463585494
1475.996316071556,0.24775031228193808
1478.4860984674815,0.24406100223513633
1480.9451806882025,0.24022126563493823
1483.4335406543069,0.23618688465308738
1485.8912181850574,0.23210487888753378
1488.3781569399653,0.22792639286456434
1490.8344309839958,0.22380119621225758
1493.2900079848114,0.21972620402042414
1495.7748215041174,0.21569869827758623
1498.2289968168734,0.2118587808705863
1500.7123921617567,0.20815378707922672
1503.1651669862695,0.2047104396659795
1505.647145370498,0.20147977015471835
1508.0985209052233,0.19857102906379834
1510.579083541168,0.19594204781186167
1513.02906098319,0.19368137304563704
1515.5082090818432,0.19175627352898383
1517.9567896268818,0.19023199269632107
1520.4046764008053,0.18909856864790722
1522.8817092402714,0.18836179741827944
1525.3282009046197,0.18804830893277108
1527.803822224585,0.1881558718868775
1530.2489199716838,0.188683513080416
1532.7231309783128,0.18964176314138115
1535.16683599912,0.19100103216548983
1537.6098493197496,0.19275937547324892
1540.0819513813403,0.1949292437541442
1542.5235737559778,0.1974365132462045
1544.994268510025,0.20031344794055073
1547.4345011262485,0.2034546260228907
1549.8740435159852,0.20684811091568725
