Raman Shift (cm-1),Fitted Intensity
159.26151312198635,0.0056445618004330915
162.17892251266312,0.005725215277116536
165.06070388440276,0.0058069659927570605
167.97629817665074,0.005891864465966842
170.89098012548493,0.005979024029423633
173.77006778237046,0.0060674550749291005
176.68293717714914,0.006159382529866837
179.59489550712533,0.0062538552656145555
182.50594319967058,0.00635097892816996
185.38144153980102,0.006449659241240203
188.29068006676243,0.006552390697552562
191.19900923170644,0.006658125584608327
194.07182265961455,0.006765680645381778
196.97834519226308,0.00687778571233908
199.8839596359394,0.006993311698270892
202.75409191031576,0.00711097583798808
205.65790225025557,0.007233778195298955
208.5608057718964,0.007360499525577928
211.42826064439942,0.00748974544803311
214.32936258615155,0.007624828420711392
217.22955897789507,0.0077644291932720275
220.09434019320543,0.007907027810775463
222.9927375242005,0.008056300532383102
225.89023057112718,0.008210817094493833
228.75234186693342,0.008368915833240726
231.64803836756255,0.008534700074022647
234.54283184768065,0.008706616286057045
237.4022769547155,0.008882842382156662
240.2952763983085,0.009067987349860893
243.18737408261222,0.009260360795994798
246.04415672466348,0.00945795838117606
248.93446287752522,0.00966599327651024
251.82386852998388,0.00988262312872041
254.67799242389083,0.010105635618740302
257.565609045334,0.010340972545843886
260.41796602711474,0.010583634980460017
263.3037952786035,0.01084013459177056
266.18872612093764,0.011108336907151593
269.0384305290536,0.01138561112084151
271.9215764941182,0.011679483657099405
274.8038253026716,0.011987615312656933
277.65088083558294,0.01230706641282529
280.5313472549242,0.012646612813872079
283.37664243438485,0.012999320623057215
286.2553281173605,0.013374955796338153
289.13311872473423,0.013770761317908152
291.97577117291803,0.014183133553338752
294.85178352428557,0.014623613725137595
297.6926797004962,0.015083417443902299
300.5669154435891,0.015575487128508123
303.44025818556474,0.01609645547694402
306.2785177554506,0.01664172252184838
309.150086361853,0.017226712259330534
311.98659372863403,0.017839885792174957
314.85638984211255,0.018498586137675344
317.69114662786524,0.019189788416579583
320.55917188903913,0.019932972485464304
323.42630704161274,0.02072302235741088
326.25843576130865,0.021552683671431084
329.1238025236089,0.02244503040119667
331.9541847135806,0.02338187766107619
334.8177847211591,0.02438889960123582
337.6464219965019,0.025445112548630296
340.5082568828984,0.026578895620581678
343.3351508567066,0.02776596351518888
346.1952222534492,0.02903742901961908
349.0203745368344,0.030365173116089418
351.8786840734356,0.03178297676127287
354.7361080202609,0.033276592846722755
357.55864557949826,0.03482760660825243
360.4143101115624,0.036473449921401065
363.23511000427607,0.03817425574345523
366.08901674608205,0.039969486135773495
368.90808057645336,0.041814012696028954
371.7602311504961,0.04374889633565282
374.57756052071636,0.04572374542234646
377.42795654749716,0.047780721245026206
380.2435530577968,0.04986448886334589
383.0921961558306,0.05201778383154695
385.90606140446107,0.05418103161528578
388.7529531902692,0.05639703685510664
391.56508877352826,0.058603105821249245
394.41023086164205,0.06084168113278841
397.2206383738594,0.06304847802005603
400.0640323768239,0.06526527281927896
402.8727134103756,0.06742806617620009
405.71436093876036,0.0695778392108221
408.5213170840616,0.07165299078635173
411.36121974646085,0.07369379600949628
414.16645259197685,0.07564324335143174
417.00461199500205,0.07754124891866646
419.8081231272481,0.07933747300688963
422.6107791472823,0.08105196818489124
425.446331879084,0.08270330503913499
428.2472685572284,0.08425431417542907
431.0810820327788,0.08574766016988745
433.88030095069917,0.08715635483195125
436.71237676973396,0.08852676862220978
439.5098795071426,0.08984246732880087
442.3402192674366,0.0911559602489478
445.1360074021177,0.09246106614289272
447.930943955329,0.09380325553929376
450.75868780728706,0.09523523534884339
453.5519121161087,0.09676414785732751
456.3779238904244,0.09847513085369873
459.1694375278166,0.10038177076729694
461.99371881542174,0.10259260967735619
464.7835233524238,0.10512432544464317
467.5724790401364,0.10807797930192861
470.39417274803054,0.11158313333041829
473.18142168360646,0.11564921180163829
476.00138886887726,0.12047528040960342
478.7869326185464,0.126050698287001
481.60517486533354,0.13261767944284558
484.3890149934232,0.14012377273861282
487.17200899273666,0.1487366011708089
489.9876719528438,0.15866224254281433
492.76896466880135,0.16972239530318078
495.5829066375736,0.18220917646731374
498.3624996297294,0.19580756800401225
501.14124842855017,0.21058873514700477
503.9526170105346,0.22661877672882175
506.7296684166504,0.24331652305718593
509.505876786945,0.2605993479391693
512.3146755106209,0.27834326266541365
515.0891888150436,0.29572570597957193
517.8962728359329,0.3127098700249107
520.6690926264382,0.328413420124313
523.4410713071484,0.3425641890704472
526.2455913408958,0.3548365969656524
529.0158788274384,0.3645260132392903
531.785326356061,0.3714603483634764
534.5872859139781,0.3754383195358424
537.3550445639485,0.3762553944019691
540.1219644057746,0.374003126563773
542.9213669927594,0.36876842106037994
545.686600267225,0.36098359573806527
548.4509958812232,0.35103719860860055
551.2478449957853,0.33932541094548885
554.0105563494981,0.3267529548222115
556.805701690384,0.3136784528335988
559.5667303225964,0.3010140081330643
562.3269232040038,0.28905430501755575
565.0862807140293,0.2780049255483211
567.8780333537688,0.2676351910943356
570.6357112050464,0.2577539819965546
573.3925548263542,0.24756927181076802
576.1817644509756,0.23622747971965835
578.9369307080196,0.22346358154919554
581.6912638744288,0.20898601205067055
584.4779339570123,0.19286611179462979
587.2305920494691,0.17612774341765172
589.9824181885451,0.15940480732270526
592.7665521958479,0.14330527930941447
595.5167055471175,0.12882047627276566
598.2660280801974,0.11608939110233775
601.0145201715131,0.10519781631913148
603.7952814999189,0.09594606850383745
606.5421038421155,0.0883490716958333
609.2880968749887,0.08204843573790299
612.0663301881068,0.07675871248010968
614.8106557483188,0.07240756227768204
617.554153129593,0.0687671289466283
620.2968227067649,0.06571285908008406
623.0716940541533,0.06312031729620948
625.8126991844802,0.06097652857870636
628.552877638358,0.059190843643740366
631.2922297897167,0.05771905121066475
634.0637452701958,0.05651398588338912
636.8014359932095,0.055577394124316656
639.5383015386324,0.0548727829024448
642.3073015987065,0.05438001602695289
645.0425079771339,0.0540994180935329
647.7768903008473,0.054016217341058576
650.5104489421938,0.05412604666199006
653.2431842732913,0.05442756317362884
656.0080062575216,0.05492948472309646
658.7390861754284,0.055624381314981305
661.4693439025905,0.056524535365840206
664.1987798102273,0.057640599059925586
666.9602641357596,0.059004384769218765
669.6880476268889,0.06060163233943136
672.4150104152941,0.06246964125212806
675.141152871307,0.06463601033387742
677.8993055782594,0.06716658700533563
680.6237986072192,0.07004213771635166
683.3474724178923,0.07333959727727755
686.0703273797008,0.07711748414899117
688.7923638618704,0.08144550804647506
691.5463630106569,0.08647021809394771
694.2667537902307,0.09217002866743614
696.9863272009134,0.09871374157048393
699.705083611032,0.10623098032831654
702.4230233886883,0.11486791262870842
705.1728783546314,0.12491372678380708
707.8891761429404,0.13630372291610793
710.6046584062024,0.14932758209501726
713.3193255116239,0.1641596156424636
716.033177826208,0.18095779088066818
718.7462157167283,0.19984805370231545
721.491111983778,0.22117330108278715
724.2025123243511,0.2444323214547896
726.9130993442814,0.2697860142585942
729.6228734094693,0.2970584766625282
732.3318348855792,0.3259809240363138
735.0399841380749,0.35622071029341185
737.7799351068679,0.3878444496502602
740.4864512328204,0.42000498793793106
743.1921562345997,0.4536912662184808
745.8970504767931,0.4910990764544784
748.6011343237551,0.5357663321740375
751.3044081396256,0.586374384791644
754.0394271625555,0.6277744293468371
756.741072259374,0.6403975578420427
759.4419084205874,0.6309979799447653
762.1419360094733,0.6248557076932482
764.8411553890837,0.6407082110815636
767.539566922238,0.6877128710785209
770.2371709715626,0.7700900644852027
772.9339678994475,0.877125587894551
775.6624349602753,0.9712555745625803
778.3576090181923,0.9963809699209468
781.0519770449282,0.926826502304478
783.7455394020071,0.7875419727926597
786.4382964507422,0.6324668808207797
789.1302485522319,0.5025000394697903
791.8213960673565,0.4092951521385773
794.5117393567816,0.3463521143961253
797.2012787809545,0.3035912365864953
799.922404211542,0.27331136574628223
802.6103273114531,0.25186049203537814
805.2974476305062,0.236404228276436
807.9837655282827,0.2255425447517243
810.6692813641639,0.21839705984902333
813.3539954973021,0.2143689108031859
816.037908286642,0.21301599801613882
818.7210200909067,0.21398654506891818
821.4033312686151,0.21698004553093936
824.0848421780756,0.22172240700749035
826.7655531773598,0.2279492419766268
829.4777478409233,0.23549058576137832
832.1568504666102,0.2438893865646758
834.8351542594137,0.2529418100984237
837.5126595765614,0.26234922769164293
840.1893667750774,0.27180477398212644
842.8652762117599,0.2809999574617153
845.5403882432074,0.2896338563668061
848.2147032257963,0.2974242584931638
850.8882215157028,0.30411994538104087
853.5609434688704,0.30951321927805603
856.2328694410462,0.31345174792529223
858.9039997877626,0.31584886742071816
861.5743348643446,0.3166916309452169
864.2438750258916,0.3160460961582519
866.9126206273068,0.31405956291677567
869.5805720232747,0.31095964655862657
872.2477295682729,0.30705013498924005
874.9140936165568,0.30270347587805513
877.5796645221853,0.29834945659920514
880.2444426389957,0.2944592281819658
882.9084283206321,0.2915234408702004
885.5716219205024,0.2900231688425999
888.2340237918252,0.29039284495758577
890.8956342876045,0.2929759146092481
893.5564537606224,0.2979764706005127
896.2164825634645,0.305413495477603
898.8757210485091,0.3150877789428973
901.566194253428,0.3267209964698989
904.2238436478765,0.33940702530921496
906.88070378462,0.35253152964584794
909.5047788508018,0.36520815347989427
912.1600710251078,0.3771880190324032
914.8145749914547,0.3881081811148967
917.4682911007549,0.3982949676705607
920.1212197037094,0.40870309365517804
922.7733611508156,0.4208556410365274
925.4247157923564,0.4365355974066818
928.0752839784072,0.45717474608155817
930.725066058847,0.48300520266509006
933.3740623833291,0.512234071098098
936.0222733013143,0.5406773840385531
938.669699162052,0.5622767741965654
941.3163403145809,0.5706006349562651
943.9621971077358,0.5608913013558589
946.607269890148,0.5317903659439156
949.2515590102339,0.4859079187396328
951.8950648162136,0.42895600659009936
954.5377876560888,0.3679005949623242
957.1797278776648,0.3090150012615691
959.8208858285398,0.2566044333349404
962.4612618561077,0.2126829216826832
965.1008563075484,0.1773952180166015
967.7396695298376,0.1497544168550711
970.3777018697583,0.12832653728382626
973.0149536738754,0.11168495083704495
975.65142528855,0.09862685178624254
978.2871170599428,0.08822583248306051
980.8902880408277,0.07989423701995525
983.5244305486303,0.07294509418711355
986.1577942462391,0.06714033218653134
988.7903794789963,0.062227010798038336
991.4221865920408,0.058019890907694376
994.0532159303111,0.0543809863903432
996.6834678385349,0.051205726714739705
999.3129426612431,0.048413561970828585
1001.9416407427561,0.04594150753581149
1004.5695624271975,0.043739638251933874
1007.1967080584836,0.041767890051132725
1009.8230779803271,0.03999375183848917
1012.4170434801454,0.03840896245781751
1015.041872349022,0.03695301881199491
1017.665926534246,0.035627797739994076
1020.2892063787294,0.034417804864414925
1022.9117122251773,0.033309923333185575
1025.5334444160871,0.0322929766814551
1028.15440329376,0.031357384555425825
1030.7745892002931,0.030494889119550644
1033.3940024775802,0.02969833581010775
1035.9810981708106,0.028970040649194877
1038.598976513018,0.028286844537438672
1041.2160832463414,0.027653188039057787
1043.832418711885,0.02706484975411656
1046.447983250535,0.02651809547402178
1049.0627772029802,0.026009610800970438
1051.676800909714,0.02553644466939537
1054.290054711022,0.025095961769222158
1056.8710678120515,0.024690572066903914
1059.48279208834,0.024308289350627434
1062.093747474777,0.023952326758784268
1064.7039343108554,0.023620962625755627
1067.313352935871,0.02331264096062899
1069.9220036889128,0.023025952806548785
1072.4984711957586,0.02276271246186331
1075.105596462614,0.022515349192058755
1077.7119548694973,0.022286135672622404
1080.317546754708,0.02207410812450277
1082.9223724563308,0.021878387400905443
1085.5264323122756,0.021698170725959483
1088.1297266602414,0.02153272441398296
1090.700904617097,0.02138311945830631
1093.3026781742628,0.021245098726689705
1095.90368723129,0.02112000759844484
1098.5039321250988,0.021007330795925667
1101.1034131923952,0.0209065965071056
1103.6708254619662,0.020818380884064125
1106.2687890782108,0.020740140856122406
1108.8659898728438,0.020672658981036443
1111.4624281817887,0.020615604793892187
1114.0581043407765,0.020568676837806082
1116.6217591897112,0.020531989674543432
1119.2159212276165,0.020504401420838765
1121.8093221175222,0.020486192026883822
1124.4019621943662,0.0204771571319002
1126.9938417929043,0.020477112947977286
1129.5537474636767,0.020485737296047926
1132.1441162613737,0.020503095704989732
1134.7337255797866,0.02052900674919636
1137.322575752878,0.020563357700151327
1139.9106671144218,0.02060605141876123
1142.466831825419,0.02065634285261839
1145.0534156966605,0.020715391187966524
1147.6392417524658,0.020782578196127124
1150.2243103258224,0.020857862502838567
1152.7774899721844,0.020940163246391814
1155.3610536951164,0.021031471501332444
1157.9438609293902,0.021130827634330388
1160.5259120072114,0.021238238788877144
1163.1072072606003,0.02135372352369403
1165.6566606759006,0.021475774207587693
1168.2364543720396,0.021607407995236257
1170.8154932346333,0.021747236883106588
1173.3937775949307,0.021895323184999923
1175.940257690534,0.022049805483102588
1178.5170431196166,0.022214534419815014
1181.0930750349762,0.022387770608790124
1183.6683537670833,0.02256961892790175
1186.2118657414467,0.022757846444173602
1188.7856481622657,0.02295716912805448
1191.3586783861065,0.0231654814828657
1193.9309567426717,0.023382931676574334
1196.471505782134,0.02360689116351565
1199.0422904412299,0.023842991296064778
1201.6123242170252,0.024088739324801017
1204.1506566845674,0.024341190418637963
1206.7191987172919,0.024606705795396006
1209.2869908489847,0.024882484690006146
1211.8540334080099,0.02516875801877911
1214.389411983815,0.025462126378928966
1216.9549654029506,0.025769999836968434
1219.5197702293917,0.026089137005313352
1222.0529389950316,0.02641576922703805
1224.61625662804,0.026758160293130148
1227.1788266466283,0.027112712473204993
1229.7406493778217,0.02747975718767579
1232.2708732581305,0.027854987717281936
1234.8312113884967,0.028247917674376326
1237.3908032074723,0.028654432473331194
1239.9188240118929,0.029069783301804923
1242.4769331685857,0.02950451867914715
1245.0342969881858,0.029954101612564378
1247.560117592806,0.030413303399638138
1250.116000685306,0.030893808220813057
1252.6711394133126,0.03139062338012356
1255.194762689218,0.031897998830601716
1257.7484226219312,0.03242887409653634
1260.3013391610693,0.03297776595514511
1262.822767974354,0.03353835912251896
1265.3742076466478,0.034124993881597454
1267.924904894593,0.03473166335334923
1270.4441421063602,0.03535144398838324
1272.993364412563,0.036000260605619075
1275.5418452619597,0.03667155892403057
1278.0588937283464,0.03735777324316766
1280.6059015577484,0.03807666042121784
1283.1521688962057,0.03882112286484695
1285.6670314683906,0.03958294866417384
1288.2118277052796,0.040382092971860455
1290.755884415401,0.04121099260140336
1293.2685639396113,0.04206086854046036
1295.811151463251,0.04295448829184852
1298.3530004226377,0.04388409410943165
1300.8634997401532,0.04484064685439326
1303.403881424827,0.04585091561104625
1305.9129317732186,0.0468947144188537
1308.4518474532706,0.048002781978505334
1310.9900261682633,0.0491694532414749
1313.4969010306886,0.0503881683417616
1316.0336156473168,0.05169997677653692
1318.5695942569437,0.05310555425275101
1321.074296461582,0.05460591432892654
1323.6088128757874,0.056263919997179265
1326.112071126503,0.05807293989402577
1328.6451266095319,0.06011804497517406
1331.1774476773753,0.06242060755067646
1333.6785379692556,0.06497046717552958
1336.209400003383,0.06778497835848521
1338.7090494631484,0.07061042732148985
1341.2384537241596,0.07313785568266587
1343.76712515721,0.07489704341740826
1346.2646113435585,0.07572492217037949
1348.7918268954818,0.07590853558857082
1351.2878753625337,0.0758802420451741
1353.8136362903097,0.07596551219410244
1356.338665972784,0.07630473724542228
1358.832555838333,0.07690673409292087
1361.3561327831994,0.07775350201992579
1363.8485880333137,0.07878098848772289
1366.3707134939323,0.07997325597539141
1368.8921092873425,0.08128477245970094
1371.3824105944368,0.08267119989085496
1373.9023567847216,0.0841452750072119
1376.3912265713043,0.08565483949638918
1378.9097244082113,0.08722277904659861
1381.3971639082774,0.08879964570043249
1383.914214640121,0.09041346338585779
1386.4002250862322,0.09201601430691952
1388.9158299598967,0.09363752819534812
1391.4307079939972,0.09524995214497349
1393.9145728441363,0.09682591858738847
1396.4280068914595,0.0983958222244894
1398.9104457665926,0.09991402782758263
1401.422437070447,0.10140972601608242
1403.9034511981918,0.1028392667568474
1406.4140010004412,0.10422992177705738
1408.893591607004,0.10554089192736346
1411.4027011481012,0.10679699313127408
1413.8808694582804,0.10796122956059069
1416.388539977259,0.10905555878673005
1418.8954870924463,0.11005928143031465
1421.3715199489052,0.11095660839604321
1423.877029901585,0.11176467887882637
1426.3516435212223,0.11246005604747973
1428.8557175468777,0.11305645288300267
1431.3289131495767,0.11353712650493265
1433.8315524822574,0.11391226878961168
1436.3033312865118,0.11417222410680694
1438.8045371588632,0.11432362406478552
1441.2749003817698,0.11436400511519591
1443.7746740250223,0.11429644804599516
1446.2436228822844,0.11412548503548119
1448.7419655262602,0.11385070293835384
1451.2095012321843,0.11348314937640662
1453.7064141053015,0.11301902574076528
1456.1725378728079,0.11247517480666414
1458.6680222020732,0.11184457964274801
1461.1327352426997,0.1111489807717812
1463.6267922537227,0.11037837540174743
1466.090095777603,0.10955839904677307
1468.582726694589,0.1086763637558011
1471.044621910496,0.10776076245009483
1473.5358279562424,0.10679658795561624
1475.996316071556,0.10581417933988023
1478.4860984674815,0.10479663187565952
1480.9451806882025,0.10377519261951015
1483.4335406543069,0.10273152169417936
1485.8912181850574,0.10169693978220118
1488.3781569399653,0.10065215655289855
1490.8344309839958,0.09962785131087415
1493.2900079848114,0.09861650437710519
1495.7748215041174,0.09761086049722513
1498.2289968168734,0.09663956794549085
1500.7123921617567,0.0956830540283549
1503.1651669862695,0.09476806051473805
1505.647145370498,0.09387566959536042
1508.0985209052233,0.0930303924568047
1510.579083541168,0.09221434081746245
1513.02906098319,0.09144955435315663
1515.5082090818432,0.0907194959042441
1517.9567896268818,0.09004356117791897
1520.4046764008053,0.08941421159055042
1522.8817092402714,0.08882593579687546
1525.3282009046197,0.08829396634661324
1527.803822224585,0.08780617563835898
1530.2489199716838,0.08737493865196569
1532.7231309783128,0.08699016190983101
1535.16683599912,0.08666133933300008
1537.6098493197496,0.08638355725302738
1540.0819513813403,0.08615421224388321
1542.5235737559778,0.08597849770856901
