Raman Shift (cm-1),Fitted Intensity
159.26151312198635,0.003996044647055022
162.17892251266312,0.004043493979059689
165.06070388440276,0.004091501617402285
167.97629817665074,0.004141268003374304
170.89098012548493,0.0041922680261694024
173.77006778237046,0.004243920446890989
176.68293717714914,0.004297520974159336
179.59489550712533,0.004352509458613185
182.50594319967058,0.004408943413928776
185.38144153980102,0.0044661847815363614
188.29068006676243,0.004525676566667961
191.19900923170644,0.004586806314099729
194.07182265961455,0.004648887780552419
196.97834519226308,0.00471349272822112
199.8839596359394,0.004779964811153016
202.75409191031576,0.004847564018607686
205.65790225025557,0.004918010261934491
208.5608057718964,0.004990598770063261
211.42826064439942,0.005064529369800349
214.32936258615155,0.00514169377296749
217.22955897789507,0.005221333778416517
220.09434019320543,0.005302581729886086
222.9927375242005,0.005387530312266761
225.89023057112718,0.005475362446462707
228.75234186693342,0.005565134637467932
231.64803836756255,0.0056591769803055305
234.54283184768065,0.005756607729871643
237.4022769547155,0.005856398078486769
240.2952763983085,0.00596116168468087
243.18737408261222,0.006069946251631484
246.04415672466348,0.006181627054766589
248.93446287752522,0.006299160703410441
251.82386852998388,0.0064215188642223605
254.67799242389083,0.006547469307551333
257.565609045334,0.006680389369285583
260.41796602711474,0.006817482354398012
263.3037952786035,0.0069624610358930165
266.18872612093764,0.007114162748479312
269.0384305290536,0.007271149574810567
271.9215764941182,0.00743774805289268
274.8038253026716,0.007612717007917246
277.65088083558294,0.007794481029010885
280.5313472549242,0.007988157023799566
283.37664243438485,0.008189940113540397
286.2553281173605,0.008405605800392568
289.13311872473423,0.008633818283955244
291.97577117291803,0.008872766975384319
294.85178352428557,0.009129493106407746
297.6926797004962,0.009399305058960769
300.5669154435891,0.009690331766080694
303.44025818556474,0.01000127936022053
306.2785177554506,0.010330145594522847
309.150086361853,0.01068720822242012
311.98659372863403,0.011066587731604712
314.85638984211255,0.011480440984478982
317.69114662786524,0.011922268721558507
320.55917188903913,0.012406562069968551
323.42630704161274,0.012932570267722772
326.25843576130865,0.013498071340541136
329.1238025236089,0.01412207732946615
331.9541847135806,0.014795581576837564
334.8177847211591,0.015541311713797485
337.6464219965019,0.01634841983344248
340.5082568828984,0.017243822400259665
343.3351508567066,0.01821387711006683
346.1952222534492,0.019289918353971456
349.0203745368344,0.020454083403840143
351.8786840734356,0.02174192177318927
354.7361080202609,0.023146834144242217
357.55864557949826,0.024655461554446673
360.4143101115624,0.026307937705747377
363.23511000427607,0.02806639121338103
366.08901674608205,0.02997183131962664
368.90808057645336,0.031974182618809875
371.7602311504961,0.03411298431680598
374.57756052071636,0.03632447904792645
377.42795654749716,0.038644332990714694
380.2435530577968,0.04099540462768019
383.0921961558306,0.04340763625711988
385.90606140446107,0.04579337486259021
388.7529531902692,0.04817614769956236
391.56508877352826,0.05046359562726595
394.41023086164205,0.0526736657213604
397.2206383738594,0.05471763576868305
400.0640323768239,0.05661015637249572
402.8727134103756,0.058275761519559856
405.71436093876036,0.05972896603894117
408.5213170840616,0.060916530161142235
411.36121974646085,0.06185596605862881
414.16645259197685,0.06252249921153277
417.00461199500205,0.0629388407746963
419.8081231272481,0.06311059766761595
422.6107791472823,0.06306810584378476
425.446331879084,0.06283928026162316
428.2472685572284,0.06246824821980251
431.0810820327788,0.06199091337055771
433.88030095069917,0.061466756397180584
436.71237676973396,0.0609345105792273
439.5098795071426,0.06045829960255644
442.3402192674366,0.060078362699618075
445.1360074021177,0.05985275975826161
447.930943955329,0.059821769538771614
450.75868780728706,0.060030978429835
453.5519121161087,0.060512444802507545
456.3779238904244,0.06130969859569338
459.1694375278166,0.06242894081611753
461.99371881542174,0.06391581920160413
464.7835233524238,0.06574598556625792
467.5724790401364,0.06793819670747883
470.39417274803054,0.07052027150813123
473.18142168360646,0.07341685276997822
476.00138886887726,0.0766742827087816
478.7869326185464,0.08018243516707184
481.60517486533354,0.08398301443644768
484.3890149934232,0.08793395212899988
487.17200899273666,0.09201918008124718
489.9876719528438,0.09622092233692985
492.76896466880135,0.10036371394370616
495.5829066375736,0.10446550854261619
498.3624996297294,0.10834500221844863
501.14124842855017,0.1119682911663536
503.9526170105346,0.11529115482346859
506.7296684166504,0.11815708261999801
509.505876786945,0.12053877955769327
512.3146755106209,0.12239594737536094
515.0891888150436,0.12363742823917168
517.8962728359329,0.12426010518093752
520.6690926264382,0.12423233298691361
523.4410713071484,0.12356479248067344
526.2455913408958,0.12225360287847876
529.0158788274384,0.12036087636840487
531.785326356061,0.11791906566340113
534.5872859139781,0.11494611844875882
537.3550445639485,0.11157889743847624
540.1219644057746,0.10785696021745585
542.9213669927594,0.10380669280607875
545.686600267225,0.09960240605981123
548.4509958812232,0.09527305466791446
551.2478449957853,0.09083773517262955
554.0105563494981,0.08646903576508219
556.805701690384,0.08212248354208083
559.5667303225964,0.07795325045765059
562.3269232040038,0.07395159993080351
565.0862807140293,0.07015142912658633
567.8780333537688,0.06653663120630983
570.6357112050464,0.0632110121967293
573.3925548263542,0.06014054409547216
576.1817644509756,0.05729716885603954
578.9369307080196,0.05474757958354669
581.6912638744288,0.052451158381852006
584.4779339570123,0.05037623422455116
587.2305920494691,0.04856139893743147
589.9824181885451,0.046968315618137635
592.7665521958479,0.04556858643723722
595.5167055471175,0.04438230482165378
598.2660280801974,0.04337880134771477
601.0145201715131,0.042546009548597226
603.7952814999189,0.04186568565056593
606.5421038421155,0.041344089755416605
609.2880968749887,0.040963727164664406
612.0663301881068,0.04071545741915897
614.8106557483188,0.04059973821912154
617.554153129593,0.04060904512640834
620.2968227067649,0.04074126532195882
623.0716940541533,0.04099980430319164
625.8126991844802,0.041379855612263455
628.552877638358,0.04188688802218653
631.2922297897167,0.04252586272004373
634.0637452701958,0.04331387185338986
636.8014359932095,0.04424101965946232
639.5383015386324,0.04532658020484892
642.3073015987065,0.04659949952617026
645.0425079771339,0.0480442526872498
647.7768903008473,0.0496913984322029
650.5104489421938,0.051559031640053536
653.2431842732913,0.05366658488222925
656.0080062575216,0.05606460524582293
658.7390861754284,0.05871689648627972
661.4693439025905,0.061670692010875876
664.1987798102273,0.06494499729815845
666.9602641357596,0.0686021113155095
669.6880476268889,0.07256825014394006
672.4150104152941,0.07689330176771166
675.141152871307,0.08157976001364582
677.8993055782594,0.08668602085286689
680.6237986072192,0.09207800768955307
683.3474724178923,0.09779368703600552
686.0703273797008,0.10380420748378827
688.7923638618704,0.1100733495675651
691.5463630106569,0.1166384279694803
694.2667537902307,0.12329753340877685
696.9863272009134,0.13008294518565955
699.705083611032,0.1369552483337711
702.4230233886883,0.1438862056320925
705.1728783546314,0.15095034919687028
707.8891761429404,0.1579967787954611
710.6046584062024,0.16516341132932935
713.3193255116239,0.1725525893418007
716.033177826208,0.18032783578636571
718.7462157167283,0.18872812651803678
721.491111983778,0.19820280062272666
724.2025123243511,0.208963787088251
726.9130993442814,0.22166220128290087
729.6228734094693,0.23694965490964437
732.3318348855792,0.2555596577659725
735.0399841380749,0.27825241569891407
737.7799351068679,0.30608410653333323
740.4864512328204,0.3388914234224373
743.1921562345997,0.3771138084494181
745.8970504767931,0.4203889832910176
748.6011343237551,0.4677727083765436
751.3044081396256,0.5177914900184656
754.0394271625555,0.5693134356957215
756.741072259374,0.6195995498844166
759.4419084205874,0.6687533172973945
762.1419360094733,0.7179797998178538
764.8411553890837,0.7703220179512694
767.539566922238,0.8292431413855431
770.2371709715626,0.8950544480542497
772.9339678994475,0.9603665102236103
775.6624349602753,1.0087100406995837
778.3576090181923,1.0174505385282215
781.0519770449282,0.9727988644172592
783.7455394020071,0.8766506001865096
786.4382964507422,0.7474856570830044
789.1302485522319,0.6107811867617183
791.8213960673565,0.48739185829631054
794.5117393567816,0.38762949864766927
797.2012787809545,0.31238164894870424
799.922404211542,0.2569763457245923
802.6103273114531,0.21744063121293722
805.2974476305062,0.18857850985970326
807.9837655282827,0.16721345307885185
810.6692813641639,0.15121179733277806
813.3539954973021,0.13916133616458448
816.037908286642,0.13011636766021814
818.7210200909067,0.12342948289896494
821.4033312686151,0.11864638924365552
824.0848421780756,0.11543993122538368
826.7655531773598,0.1135675653671224
829.4777478409233,0.11284062986073852
832.1568504666102,0.11312549534601703
834.8351542594137,0.11428037902863443
837.5126595765614,0.11619144363831511
840.1893667750774,0.11875035960813543
842.8652762117599,0.12184924677748617
845.5403882432074,0.12537741418582746
848.2147032257963,0.1292196979565512
850.8882215157028,0.13325626963111775
853.5609434688704,0.13736380531547282
856.2328694410462,0.1414178873744174
858.9039997877626,0.14529647005629728
861.5743348643446,0.14888419218287238
864.2438750258916,0.15207727716273628
866.9126206273068,0.15478873549018432
869.5805720232747,0.1569535883102624
872.2477295682729,0.15853387036861963
874.9140936165568,0.1595232496023891
877.5796645221853,0.15995121315886326
880.2444426389957,0.15988689502897416
882.9084283206321,0.15944271180085023
885.5716219205024,0.15877794253001837
888.2340237918252,0.15810209831542
890.8956342876045,0.1576772060289067
893.5564537606224,0.15781685601122988
896.2164825634645,0.15887813665968215
898.8757210485091,0.16124097443334046
901.566194253428,0.16532912907703498
904.2238436478765,0.17133478141108344
906.88070378462,0.17942755705486635
909.5047788508018,0.18937512814900656
912.1600710251078,0.20104421439006356
914.8145749914547,0.21368092688011434
917.4682911007549,0.2264870033803619
920.1212197037094,0.23873439350165557
922.7733611508156,0.25009076109715933
925.4247157923564,0.26100772535777766
928.0752839784072,0.273103642966461
930.725066058847,0.2894085155373918
933.3740623833291,0.31419097227397347
936.0222733013143,0.3518932075946601
938.669699162052,0.40475488936935544
941.3163403145809,0.46950830941608135
943.9621971077358,0.5350772433684298
946.607269890148,0.5841407417703726
949.2515590102339,0.5996943707910951
951.8950648162136,0.5735386033021045
954.5377876560888,0.5108264158189701
957.1797278776648,0.42716939871362325
959.8208858285398,0.3406420317531593
962.4612618561077,0.264481656502578
965.1008563075484,0.20440250252022432
967.7396695298376,0.16016091920964093
970.3777018697583,0.12864324959973347
973.0149536738754,0.10627588395524815
975.65142528855,0.09014524490195569
978.2871170599428,0.07820810601818941
980.8902880408277,0.06922097253394786
983.5244305486303,0.062108396290570425
986.1577942462391,0.056430529949476976
988.7903794789963,0.05181094545296267
991.4221865920408,0.047991472410319966
994.0532159303111,0.04479012076959817
996.6834678385349,0.04207536259492101
999.3129426612431,0.039750013263606554
1001.9416407427561,0.0377408478777201
1004.5695624271975,0.035991733029884426
1007.1967080584836,0.034458972001198504
1009.8230779803271,0.033108079900304364
1012.4170434801454,0.03192509515913622
1015.041872349022,0.030859102559226498
1017.665926534246,0.029907202443261297
1020.2892063787294,0.02905440159694739
1022.9117122251773,0.02828825000171082
1025.5334444160871,0.027598329960347244
1028.15440329376,0.026975862816845927
1030.7745892002931,0.026413403039319404
1033.3940024775802,0.02590459796195805
1035.9810981708106,0.025449279125230075
1038.598976513018,0.025031684520184175
1041.2160832463414,0.024653568463660576
1043.832418711885,0.024311381773640794
1046.447983250535,0.024002023627600906
1049.0627772029802,0.02372277477125772
1051.676800909714,0.0234712423157406
1054.290054711022,0.023245313856873555
1056.8710678120515,0.023045420710486007
1059.48279208834,0.022865042637523723
1062.093747474777,0.022705277341646894
1064.7039343108554,0.02256480533712526
1067.313352935871,0.022442447577045492
1069.9220036889128,0.022337148696948125
1072.4984711957586,0.02224894472139478
1075.105596462614,0.022174843210444724
1077.7119548694973,0.022115251335456367
1080.317546754708,0.02206948244383545
1082.9223724563308,0.022036918985954033
1085.5264323122756,0.022017005512733265
1088.1297266602414,0.022009242561575673
1090.700904617097,0.022013065839835907
1093.3026781742628,0.022028169491662152
1095.90368723129,0.02205421500008828
1098.5039321250988,0.022090879040762505
1101.1034131923952,0.022137873307567363
1103.6708254619662,0.022194195074680546
1106.2687890782108,0.022260993706521775
1108.8659898728438,0.022337443278476834
1111.4624281817887,0.02242337003142774
1114.0581043407765,0.022518623998083687
1116.6217591897112,0.022621764679946633
1119.2159212276165,0.02273520183434434
1121.8093221175222,0.022857645479693513
1124.4019621943662,0.022989026904689902
1126.9938417929043,0.02312929511218506
1129.5537474636767,0.02327656676549286
1132.1441162613737,0.023434416030195717
1134.7337255797866,0.023601097665908725
1137.322575752878,0.023776624201397163
1139.9106671144218,0.023961022770540238
1142.466831825419,0.02415195242833344
1145.0534156966605,0.024354124659451554
1147.6392417524658,0.024565333675662302
1150.2243103258224,0.02478566183456543
1152.7774899721844,0.025012384065443344
1155.3610536951164,0.02525113812758839
1157.9438609293902,0.025499337139134767
1160.5259120072114,0.02575711681374241
1163.1072072606003,0.026024626372438832
1165.6566606759006,0.026298626945195462
1168.2364543720396,0.026585976383341817
1170.8154932346333,0.026883583881318847
1173.3937775949307,0.02719165463991121
1175.940257690534,0.02750650379866225
1178.5170431196166,0.027836043483857924
1181.0930750349762,0.028176749798882638
1183.6683537670833,0.02852889002230107
1186.2118657414467,0.028888293681184788
1188.7856481622657,0.029264025583120787
1191.3586783861065,0.02965209422102832
1193.9309567426717,0.030052839312323935
1196.471505782134,0.03046155660257523
1199.0422904412299,0.030888592522459953
1201.6123242170252,0.03132944614024287
1204.1506566845674,0.031778976083817315
1206.7191987172919,0.03224859577226082
1209.2869908489847,0.03273339084733891
1211.8540334080099,0.033233871624426814
1214.389411983815,0.03374425563358924
1216.9549654029506,0.03427756086402798
1219.5197702293917,0.034828273628653955
1222.0529389950316,0.03539008230390069
1224.61625662804,0.035977376535839135
1227.1788266466283,0.03658415565505495
1229.7406493778217,0.03721121153666956
1232.2708732581305,0.03785145380375064
1234.8312113884967,0.038521399122800136
1237.3908032074723,0.039214347226549436
1239.9188240118929,0.0399225670679708
1242.4769331685857,0.040664461031576
1245.0342969881858,0.04143277480036584
1247.560117592806,0.04221908959888383
1250.116000685306,0.04304403394277242
1252.6711394133126,0.04389979133790853
1255.194762689218,0.044777218809887054
1257.7484226219312,0.04569963932722507
1260.3013391610693,0.04665870225719044
1262.822767974354,0.047644531997491066
1265.3742076466478,0.048683818768994594
1267.924904894593,0.04976777996164349
1270.4441421063602,0.05088586195039095
1272.993364412563,0.05206913468395405
1275.5418452619597,0.05330863245220783
1278.0588937283464,0.05459330856352509
1280.6059015577484,0.055960204709848346
1283.1521688962057,0.05740069897483559
1285.6670314683906,0.05890368264410385
1288.2118277052796,0.06051474713068553
1290.755884415401,0.06222661250036889
1293.2685639396113,0.06402890914355885
1295.811151463251,0.06597988925521062
1298.3530004226377,0.06807511304725884
1300.8634997401532,0.07030580151421714
1303.403881424827,0.07274840273907272
1305.9129317732186,0.07536825757145135
1308.4518474532706,0.07825562919512183
1310.9900261682633,0.08140644322185968
1313.4969010306886,0.084800306117996
1316.0336156473168,0.08853244451332895
1318.5695942569437,0.09255524971900568
1321.074296461582,0.09677259601932778
1323.6088128757874,0.10119164593765123
1326.112071126503,0.10554506371418755
1328.6451266095319,0.10970625377875605
1331.1774476773753,0.11334322295038295
1333.6785379692556,0.11616713242249285
1336.209400003383,0.11808746042660989
1338.7090494631484,0.11905519876258025
1341.2384537241596,0.11924880083218982
1343.76712515721,0.11890864758212571
1346.2646113435585,0.11832110453283838
1348.7918268954818,0.11770632504187237
1351.2878753625337,0.11724201898306552
1353.8136362903097,0.11701425826448876
1356.338665972784,0.11707436050649031
1358.832555838333,0.11742448647697931
1361.3561327831994,0.11806018646709801
1363.8485880333137,0.11894276313575539
1366.3707134939323,0.120065679353374
1368.8921092873425,0.12139069745996092
1371.3824105944368,0.12287109948221961
1373.9023567847216,0.12451758769396785
1376.3912265713043,0.12626767933090077
1378.9097244082113,0.12814298686080325
1381.3971639082774,0.13007941207498783
1383.914214640121,0.13210652725403443
1386.4002250862322,0.13415936771284456
1388.9158299598967,0.13627264629735655
1391.4307079939972,0.1384069167977474
1393.9145728441363,0.140522368768223
1396.4280068914595,0.14265724661074836
1398.9104457665926,0.14474741477533526
1401.422437070447,0.14683136265667648
1403.9034511981918,0.1488469763360851
1406.4140010004412,0.15083174003854646
1408.893591607004,0.15272678669945766
1411.4027011481012,0.15456763180491837
1413.8808694582804,0.15629996644145877
1416.388539977259,0.1579566081491927
1418.8954870924463,0.15950713205106526
1421.3715199489052,0.16092707033005596
1423.877029901585,0.16224423093318177
1426.3516435212223,0.16342119433092883
1428.8557175468777,0.1644820233740052
1431.3289131495767,0.1653977619878923
1433.8315524822574,0.16618853869692982
1436.3033312865118,0.16683437911046947
1438.8045371588632,0.16735138192677584
1441.2749003817698,0.1677286784609996
1443.7746740250223,0.1679783209315629
1446.2436228822844,0.16809825942856052
1448.7419655262602,0.16809655596121229
1451.2095012321843,0.16797930536390404
1453.7064141053015,0.16775071051860505
1456.1725378728079,0.16742400989757283
1458.6680222020732,0.166999759378419
1461.1327352426997,0.16649709872661572
1463.6267922537227,0.16591323575989234
1466.090095777603,0.1652718260019407
1468.582726694589,0.1645671156861246
1471.044621910496,0.1638258440072936
1473.5358279562424,0.1630397621578934
1475.996316071556,0.16223729868451145
1478.4860984674815,0.16140823984510289
1480.9451806882025,0.1605814123308104
1483.4335406543069,0.15974520687699412
1485.8912181850574,0.1589277044013882
1488.3781569399653,0.15811647960114442
1490.8344309839958,0.15733789546466012
1493.2900079848114,0.1565882099988462
1495.7748215041174,0.15586445451610534
1498.2289968168734,0.1551889958093859
1500.7123921617567,0.15454969399599405
1503.1651669862695,0.1539655505513265
1505.647145370498,0.15342529053029924
1508.0985209052233,0.15294418501753887
1510.579083541168,0.15251210835291296
1513.02906098319,0.15214038878431357
1515.5082090818432,0.15182022013033128
1517.9567896268818,0.15155891894202259
1520.4046764008053,0.15135125750448855
1522.8817092402714,0.1511939867859585
1525.3282009046197,0.1510885890653166
1527.803822224585,0.1510295224521504
1530.2489199716838,0.15101468443360602
1532.7231309783128,0.15103953485634158
1535.16683599912,0.1510987983002612
1537.6098493197496,0.1511873792658665
1540.0819513813403,0.15130109832169283
