Raman Shift (cm-1),Fitted Intensity
159.26151312198635,0.004988219916176276
162.17892251266312,0.0050593385386090125
165.06070388440276,0.0051314275223919535
167.97629817665074,0.005206295283754965
170.89098012548493,0.005283160215912682
173.77006778237046,0.005361149791054124
176.68293717714914,0.005442226490024785
179.59489550712533,0.005525551782294971
182.50594319967058,0.005611219122745012
185.38144153980102,0.005698263515969487
188.29068006676243,0.005788885593148626
191.19900923170644,0.005882161492317129
194.07182265961455,0.0059770475769942814
196.97834519226308,0.006075952399367204
199.8839596359394,0.006177880162583458
202.75409191031576,0.006281699250407524
205.65790225025557,0.00639005694702807
208.5608057718964,0.006501877709346182
211.42826064439942,0.006615931192888668
214.32936258615155,0.006735140611992514
217.22955897789507,0.00685834190089551
220.09434019320543,0.006984193582870853
222.9927375242005,0.007115940102298719
225.89023057112718,0.007252319034300846
228.75234186693342,0.007391863413650083
231.64803836756255,0.0075381945800783905
234.54283184768065,0.007689940757381829
237.4022769547155,0.007845492813100471
240.2952763983085,0.008008918007544686
243.18737408261222,0.008178722953908398
246.04415672466348,0.008353136860031639
248.93446287752522,0.008536759237630418
251.82386852998388,0.008727961383913133
254.67799242389083,0.008924787827519737
257.565609045334,0.009132479098985005
260.41796602711474,0.009346619292371046
263.3037952786035,0.009572949620930783
266.18872612093764,0.009809580277496047
269.0384305290536,0.010054183630015529
271.9215764941182,0.010313391060359776
274.8038253026716,0.010585129053264192
277.65088083558294,0.010866795079632945
280.5313472549242,0.011166114393676638
283.37664243438485,0.011476960496304651
286.2553281173605,0.011807924094976188
289.13311872473423,0.012156556323620124
291.97577117291803,0.012519664923920825
294.85178352428557,0.012907390271461058
297.6926797004962,0.013311976442461109
300.5669154435891,0.013744785890911928
303.44025818556474,0.014202826689003108
306.2785177554506,0.014682029858603122
309.150086361853,0.015195922187234038
311.98659372863403,0.015734339666363898
314.85638984211255,0.016312484562129092
317.69114662786524,0.016918901846328056
320.55917188903913,0.017570663144047875
323.42630704161274,0.018263265177991428
326.25843576130865,0.018990349517582997
329.1238025236089,0.019772145691731885
331.9541847135806,0.02059274422140734
334.8177847211591,0.02147467417523655
337.6464219965019,0.02239961950296438
340.5082568828984,0.023392519383007133
343.3351508567066,0.0244322202572907
346.1952222534492,0.025546121015387523
349.0203745368344,0.02670976919886793
351.8786840734356,0.027952995334589944
354.7361080202609,0.029263586458841355
357.55864557949826,0.0306256776575071
360.4143101115624,0.03207249965099659
363.23511000427607,0.03356940439260753
366.08901674608205,0.03515157265494669
368.90808057645336,0.03677971611054858
371.7602311504961,0.03849060837781677
374.57756052071636,0.040240243145175485
377.42795654749716,0.04206655629827079
380.2435530577968,0.043921002102804134
383.0921961558306,0.045842203440873475
385.90606140446107,0.04777756889499984
388.7529531902692,0.049765926117398045
391.56508877352826,0.051751486031651014
394.41023086164205,0.05377283558816338
397.2206383738594,0.05577219862737028
400.0640323768239,0.05778755856331306
402.8727134103756,0.05976069395102478
405.71436093876036,0.06172874900745393
408.5213170840616,0.06363485490312387
411.36121974646085,0.06551524934309601
414.16645259197685,0.06731635347427979
417.00461199500205,0.06907363804801031
419.8081231272481,0.07073874255475429
422.6107791472823,0.07232808539758528
425.446331879084,0.07385629699799542
428.2472685572284,0.0752860143374843
431.0810820327788,0.0766531515449257
433.88030095069917,0.07792929414288871
436.71237676973396,0.07915242034653064
439.5098795071426,0.08030378232068565
442.3402192674366,0.08142527830521976
445.1360074021177,0.08250800554702721
447.930943955329,0.08358733290635027
450.75868780728706,0.08470310992839185
453.5519121161087,0.0858603589265848
456.3779238904244,0.08712464704662336
459.1694375278166,0.08850898424757311
461.99371881542174,0.09009723766207792
464.7835233524238,0.09190847249580414
467.5724790401364,0.09402431134092415
470.39417274803054,0.09654926499424778
473.18142168360646,0.09950397142188834
476.00138886887726,0.10304961174052948
478.7869326185464,0.10719708541154144
481.60517486533354,0.11214804247602546
484.3890149934232,0.11788630300530391
487.17200899273666,0.12456383579664736
489.9876719528438,0.13236864488075406
492.76896466880135,0.14118725781357863
495.5829066375736,0.1512788049702364
498.3624996297294,0.16241208561639117
501.14124842855017,0.17466225597043802
503.9526170105346,0.18810039702202094
506.7296684166504,0.2022458697868656
509.505876786945,0.21702466515221866
512.3146755106209,0.2323231964535267
515.0891888150436,0.2474147772728728
517.8962728359329,0.2622437283944403
520.6690926264382,0.2760134567426772
523.4410713071484,0.2884593593968182
526.2455913408958,0.29927700962598064
529.0158788274384,0.3078388145481647
531.785326356061,0.3140037518131055
534.5872859139781,0.3176293309328201
537.3550445639485,0.31859077632909694
540.1219644057746,0.3170508000326311
542.9213669927594,0.31319364130110583
545.686600267225,0.3074786007660808
548.4509958812232,0.30032276121713875
551.2478449957853,0.29210807654956145
554.0105563494981,0.28348588549375386
556.805701690384,0.27460516233511145
559.5667303225964,0.26586145699948044
562.3269232040038,0.25713195127093025
565.0862807140293,0.2482094396610051
567.8780333537688,0.23863623906817663
570.6357112050464,0.228264791051496
573.3925548263542,0.21669713772493895
576.1817644509756,0.2036651949582083
578.9369307080196,0.18961112597734436
581.6912638744288,0.1747432461221701
584.4779339570123,0.159390784069229
587.2305920494691,0.14449181544707054
589.9824181885451,0.1303839558193876
592.7665521958479,0.11731710796730571
595.5167055471175,0.10584296472344479
598.2660280801974,0.0958807615785347
601.0145201715131,0.08738900024950468
603.7952814999189,0.08016564626630215
606.5421038421155,0.074216170570662
609.2880968749887,0.069272589959495
612.0663301881068,0.06512695329083666
614.8106557483188,0.06173491034602249
617.554153129593,0.058925170859357924
620.2968227067649,0.056603638983505
623.0716940541533,0.05467546595059285
625.8126991844802,0.05312829752390036
628.552877638358,0.0518922660525792
631.2922297897167,0.050933123229546864
634.0637452701958,0.050217691415641696
636.8014359932095,0.0497432892221912
639.5383015386324,0.049485757207854586
642.3073015987065,0.049435948223989154
645.0425079771339,0.04958896794641514
647.7768903008473,0.049940220651334716
650.5104489421938,0.05048978179069763
653.2431842732913,0.05124027564443643
656.0080062575216,0.052209435681885234
658.7390861754284,0.05338129075152761
661.4693439025905,0.054775060802115284
664.1987798102273,0.056401366629966136
666.9602641357596,0.058296382892853965
669.6880476268889,0.060428445880436006
672.4150104152941,0.06283289988593134
675.141152871307,0.06552469271749789
677.8993055782594,0.06855711262286103
680.6237986072192,0.07187346355893665
683.3474724178923,0.07552310918430119
686.0703273797008,0.07952073266732304
688.7923638618704,0.08388050940601573
691.5463630106569,0.08867564907065818
694.2667537902307,0.09380600836480053
696.9863272009134,0.09934126110025243
699.705083611032,0.10529882180816093
702.4230233886883,0.11170105099392147
705.1728783546314,0.11866479534522432
707.8891761429404,0.1260695308309763
710.6046584062024,0.13406149350497218
713.3193255116239,0.14273871156019702
716.033177826208,0.15224505156098428
718.7462157167283,0.16278850205917203
721.491111983778,0.17481596136383565
724.2025123243511,0.18844954993668336
726.9130993442814,0.20435637698910378
729.6228734094693,0.22319631094855585
732.3318348855792,0.2457188133798054
735.0399841380749,0.2726653302425466
737.7799351068679,0.3050108642053405
740.4864512328204,0.3421113581455911
743.1921562345997,0.38373117408224705
745.8970504767931,0.42835013316279197
748.6011343237551,0.47348065819832025
751.3044081396256,0.5159283739601063
754.0394271625555,0.5528006021185653
756.741072259374,0.5807757259147833
759.4419084205874,0.5999872970349303
762.1419360094733,0.6135731692612905
764.8411553890837,0.6298109819418575
767.539566922238,0.6631570352885815
770.2371709715626,0.730592810543521
772.9339678994475,0.8364074755635996
775.6624349602753,0.9507509309553982
778.3576090181923,1.0047113127421474
781.0519770449282,0.9483930361896613
783.7455394020071,0.7958690067089078
786.4382964507422,0.6129921067278415
789.1302485522319,0.45835535453956483
791.8213960673565,0.3513797542758808
794.5117393567816,0.28408128608178895
797.2012787809545,0.24240961900426078
799.922404211542,0.21574070646657445
802.6103273114531,0.19866345176356787
805.2974476305062,0.18752417888132267
807.9837655282827,0.1804847767032915
810.6692813641639,0.17644487986441632
813.3539954973021,0.1747024089515645
816.037908286642,0.17478079066756785
818.7210200909067,0.17633599176302744
821.4033312686151,0.1791036442290472
824.0848421780756,0.18286755808197167
826.7655531773598,0.18744035111876747
829.4777478409233,0.19271737128761846
832.1568504666102,0.19841001156593235
834.8351542594137,0.20442125310364934
837.5126595765614,0.21059770729883265
840.1893667750774,0.2167885932918751
842.8652762117599,0.22284668064156232
845.5403882432074,0.22863020967110423
848.2147032257963,0.23400553175137564
850.8882215157028,0.23885023490917737
853.5609434688704,0.24305653495265517
856.2328694410462,0.2465347282085988
858.9039997877626,0.2492165252891984
861.5743348643446,0.25105812020858664
864.2438750258916,0.25204289812159525
866.9126206273068,0.2521837488731635
869.5805720232747,0.2515250313846167
872.2477295682729,0.2501443212389974
874.9140936165568,0.24815415955845935
877.5796645221853,0.24570408150811637
880.2444426389957,0.24298319179996905
882.9084283206321,0.24022339552456845
885.5716219205024,0.2377029762513784
888.2340237918252,0.2357494214210166
890.8956342876045,0.2347391702986831
893.5564537606224,0.235090434667281
896.2164825634645,0.23724390283412677
898.8757210485091,0.24162592795580598
901.566194253428,0.24869172195925887
904.2238436478765,0.25848088881352055
906.88070378462,0.2710359473854386
909.5047788508018,0.2858442018799792
912.1600710251078,0.30264742105905784
914.8145749914547,0.3204169425114195
917.4682911007549,0.3382310145826727
920.1212197037094,0.3553919928495527
922.7733611508156,0.37177058916623157
925.4247157923564,0.3881032723899031
928.0752839784072,0.406061661134644
930.725066058847,0.4278625000999835
933.3740623833291,0.45525196584968225
936.0222733013143,0.4879915253929142
938.669699162052,0.5224779413754748
941.3163403145809,0.5515263534137502
943.9621971077358,0.566101518548653
946.607269890148,0.558686562926328
949.2515590102339,0.5266596699142924
951.8950648162136,0.4736772377755984
954.5377876560888,0.4081978678501763
957.1797278776648,0.3401086262204522
959.8208858285398,0.2774401319092206
962.4612618561077,0.22468858719566054
965.1008563075484,0.18296038335363016
967.7396695298376,0.15116038947899124
970.3777018697583,0.1272884438301779
973.0149536738754,0.10931850300257699
975.65142528855,0.0955929264099723
978.2871170599428,0.0848939702527272
980.8902880408277,0.07646500387206989
983.5244305486303,0.06952358570058254
986.1577942462391,0.06378234936575686
988.7903794789963,0.05896018500093992
991.4221865920408,0.05485623232497894
994.0532159303111,0.051323763717968526
996.6834678385349,0.048253332591726456
999.3129426612431,0.04556173532752858
1001.9416407427561,0.043184632663596886
1004.5695624271975,0.04107151026677063
1007.1967080584836,0.039182164844531644
1009.8230779803271,0.03748420629755765
1012.4170434801454,0.035968827436714576
1015.041872349022,0.03457755470246486
1017.665926534246,0.033311754654064704
1020.2892063787294,0.032156310098390026
1022.9117122251773,0.031098471714716337
1025.5334444160871,0.030127412262150648
1028.15440329376,0.029233877858557966
1030.7745892002931,0.028409912561432472
1033.3940024775802,0.027648638899024545
1035.9810981708106,0.026952253884320123
1038.598976513018,0.02629860476388749
1041.2160832463414,0.025691934591831094
1043.832418711885,0.025128211574433568
1046.447983250535,0.024603873154730883
1049.0627772029802,0.02411576023713777
1051.676800909714,0.023661062223189127
1054.290054711022,0.023237270840408296
1056.8710678120515,0.022846739340858596
1059.48279208834,0.02247794686149804
1062.093747474777,0.022134009693275808
1064.7039343108554,0.021813291364106195
1067.313352935871,0.02151431298731684
1069.9220036889128,0.02123573539563014
1072.4984711957586,0.020979359159238313
1075.105596462614,0.020737837590986963
1077.7119548694973,0.02051340451771278
1080.317546754708,0.0203051429950673
1082.9223724563308,0.020112216202594672
1085.5264323122756,0.019933859579915836
1088.1297266602414,0.019769373901397616
1090.700904617097,0.019619865126856463
1093.3026781742628,0.019481106077471257
1095.90368723129,0.01935446078918127
1098.5039321250988,0.019239436313073843
1101.1034131923952,0.019135580695006343
1103.6708254619662,0.01904353880898128
1106.2687890782108,0.018960689561425347
1108.8659898728438,0.01888787113523937
1111.4624281817887,0.018824764699274403
1114.0581043407765,0.018771078694358276
1116.6217591897112,0.01872702989690888
1119.2159212276165,0.01869130353710253
1121.8093221175222,0.01866427043538263
1124.4019621943662,0.018645730124037738
1126.9938417929043,0.018635501383066036
1129.5537474636767,0.018633398236538385
1132.1441162613737,0.018639224649987428
1134.7337255797866,0.01865292484915619
1137.322575752878,0.0186743838703408
1139.9106671144218,0.018703501223211447
1142.466831825419,0.018739703403045767
1145.0534156966605,0.018783800500807628
1147.6392417524658,0.018835335385303065
1150.2243103258224,0.01889425906923128
1152.7774899721844,0.018959692094581662
1155.3610536951164,0.019033204529035924
1157.9438609293902,0.0191140273670172
1160.5259120072114,0.019202155958319946
1163.1072072606003,0.019297596000293037
1165.6566606759006,0.01939908144629563
1168.2364543720396,0.019509112968074668
1170.8154932346333,0.019626532490074733
1173.3937775949307,0.01975138500468044
1175.940257690534,0.019882085756018075
1178.5170431196166,0.02002188581219995
1181.0930750349762,0.020169309691188287
1183.6683537670833,0.020324439950239304
1186.2118657414467,0.0204853586912861
1188.7856481622657,0.020656090943462498
1191.3586783861065,0.020834831976060026
1193.9309567426717,0.0210217017561463
1196.471505782134,0.02121442913611577
1199.0422904412299,0.021417852416435547
1201.6123242170252,0.021629819951046982
1204.1506566845674,0.021847779122344913
1206.7191987172919,0.02207721274246376
1209.2869908489847,0.022315694005577452
1211.8540334080099,0.022563411691403534
1214.389411983815,0.02281740984750786
1216.9549654029506,0.0230840913071686
1219.5197702293917,0.023360636439166745
1222.0529389950316,0.02364376246491578
1224.61625662804,0.023940615458624512
1227.1788266466283,0.024248058413194527
1229.7406493778217,0.024566357578264367
1232.2708732581305,0.024891754747991032
1234.8312113884967,0.025232474001566103
1237.3908032074723,0.02558491762851323
1239.9188240118929,0.025944936999454146
1242.4769331685857,0.026321638391538192
1245.0342969881858,0.026711046256448098
1247.560117592806,0.027108587622231926
1250.116000685306,0.027524323758285348
1252.6711394133126,0.027953868613369418
1255.194762689218,0.028392186309927344
1257.7484226219312,0.02885037416590611
1260.3013391610693,0.029323598167485018
1262.822767974354,0.029806315803150296
1265.3742076466478,0.03031074972308429
1267.924904894593,0.0308315750583694
1270.4441421063602,0.031362693190139214
1272.993364412563,0.03191754923620722
1275.5418452619597,0.03249027839679137
1278.0588937283464,0.03307417009715685
1280.6059015577484,0.03368399600840729
1283.1521688962057,0.034313295269477365
1285.6670314683906,0.034954682465454794
1288.2118277052796,0.03562436517964778
1290.755884415401,0.036315222312518734
1293.2685639396113,0.03701912303806927
1295.811151463251,0.03775382270172313
1298.3530004226377,0.03851146664944737
1300.8634997401532,0.03928309982198018
1303.403881424827,0.04008813535909442
1305.9129317732186,0.04090775477033114
1308.4518474532706,0.04176253143705058
1310.9900261682633,0.04264319806946695
1313.4969010306886,0.043539228793368176
1316.0336156473168,0.04447301560747985
1318.5695942569437,0.04543430944670089
1321.074296461582,0.04641150882677641
1323.6088128757874,0.04742889114560957
1326.112071126503,0.04846233265555014
1328.6451266095319,0.04953738343603462
1331.1774476773753,0.050641899254593684
1333.6785379692556,0.05176224827226499
1336.209400003383,0.05292588064742511
1338.7090494631484,0.054104785735599535
1341.2384537241596,0.05532763834604859
1343.76712515721,0.05658003847434628
1346.2646113435585,0.05784603177193272
1348.7918268954818,0.05915600658084695
1351.2878753625337,0.06047775042202251
1353.8136362903097,0.061842658977167286
1356.338665972784,0.06323372650394404
1358.832555838333,0.06463247350383365
1361.3561327831994,0.06607151381217576
1363.8485880333137,0.0675144433254113
1366.3707134939323,0.06899442733865291
1368.8921092873425,0.07049165668450244
1371.3824105944368,0.07198519547060817
1373.9023567847216,0.07350853826456016
1376.3912265713043,0.07502177310898578
1378.9097244082113,0.0765582206138544
1381.3971639082774,0.07807700020945968
1383.914214640121,0.07961090368703692
1386.4002250862322,0.08111846754973878
1388.9158299598967,0.08263157595362418
1391.4307079939972,0.08412655778362788
1393.9145728441363,0.0855803527177503
1396.4280068914595,0.0870227495092332
1398.9104457665926,0.08841322961733206
1401.422437070447,0.08977971537136886
1403.9034511981918,0.09108330666447992
1406.4140010004412,0.09234971506910473
1408.893591607004,0.09354249578777724
1411.4027011481012,0.09468484978106607
1413.8808694582804,0.09574366459225116
1416.388539977259,0.09673938494581598
1418.8954870924463,0.09765360817176127
1421.3715199489052,0.09847230216334814
1423.877029901585,0.0992114348618294
1426.3516435212223,0.09984985768827705
1428.8557175468777,0.10040041915450884
1431.3289131495767,0.10084788341688394
1433.8315524822574,0.10120192395840115
1436.3033312865118,0.10145356408744101
1438.8045371588632,0.10160928809753648
1441.2749003817698,0.10166646911957361
1443.7746740250223,0.1016284258049092
1446.2436228822844,0.10149870528883635
1448.7419655262602,0.10127752244655083
1451.2095012321843,0.1009741716124129
1453.7064141053015,0.10058586881500602
1456.1725378728079,0.10012701671877844
1458.6680222020732,0.09959198749037375
1461.1327352426997,0.09899949680157427
1463.6267922537227,0.09834128437030948
1466.090095777603,0.09763949051013118
1468.582726694589,0.09688349325800003
1471.044621910496,0.09609793845369204
1473.5358279562424,0.09527017016474215
1475.996316071556,0.09442644389752289
1478.4860984674815,0.0935524461851444
1480.9451806882025,0.09267521090490771
1483.4335406543069,0.09177917908378759
1485.8912181850574,0.09089142333369414
1488.3781569399653,0.08999557058988848
1490.8344309839958,0.08911809795862703
1493.2900079848114,0.0882527130814589
1495.7748215041174,0.08739338811489203
1498.2289968168734,0.08656475768122952
1500.7123921617567,0.0857502755527958
1503.1651669862695,0.08497285648014939
1505.647145370498,0.08421656772290724
1508.0985209052233,0.08350231507036915
1510.579083541168,0.0828151123875097
1513.02906098319,0.0821736408286268
1515.5082090818432,0.08156414681953418
1517.9567896268818,0.08100293167960698
1520.4046764008053,0.08048377703901306
1522.8817092402714,0.08000229818304348
1525.3282009046197,0.07957104734154105
1527.803822224585,0.07918026918851136
1530.2489199716838,0.07883994053469051
1532.7231309783128,0.07854214499662902
1535.16683599912,0.07829426073126089
1537.6098493197496,0.07809245102190421
1540.0819513813403,0.07793496427252834
