Raman Shift (cm-1),Fitted Intensity
159.26151312198635,0.005553515786240255
162.17892251266312,0.005626588175542626
165.06070388440276,0.0057006431109919795
167.97629817665074,0.0057775389614672
170.89098012548493,0.005856473457998752
173.77006778237046,0.0059365516506356695
176.68293717714914,0.006019789566388351
179.59489550712533,0.006105327281143932
182.50594319967058,0.00619326202051103
185.38144153980102,0.006282604793479169
188.29068006676243,0.006375615950263095
191.19900923170644,0.006471349018808741
194.07182265961455,0.006568734882432189
196.97834519226308,0.006670247771232641
199.8839596359394,0.0067748681499166935
202.75409191031576,0.00688143711435266
205.65790225025557,0.006992675070771373
208.5608057718964,0.007107481391727321
211.42826064439942,0.007224596251411815
214.32936258615155,0.0073470253304819925
217.22955897789507,0.007473577893780432
220.09434019320543,0.007602880339592569
222.9927375242005,0.007738271383520245
225.89023057112718,0.007878460108087165
228.75234186693342,0.008021944276905288
231.64803836756255,0.00817245454895571
234.54283184768065,0.0083285886523467
237.4022769547155,0.008488698527909564
240.2952763983085,0.008656980186804324
243.18737408261222,0.008831907752921706
246.04415672466348,0.009011667453753508
248.93446287752522,0.009201013114740097
251.82386852998388,0.009398282029888893
254.67799242389083,0.009601471672257797
257.565609045334,0.009816011395641339
260.41796602711474,0.010037361566331053
263.3037952786035,0.010271482343177632
266.18872612093764,0.010516451732880539
269.0384305290536,0.010769891124212517
271.9215764941182,0.011038712285506553
274.8038253026716,0.011320817596296025
277.65088083558294,0.011613556864833818
280.5313472549242,0.011925027221562452
283.37664243438485,0.012248933608396555
286.2553281173605,0.012594325195846273
289.13311872473423,0.012958772962507725
291.97577117291803,0.013339068117841545
294.85178352428557,0.01374599946644173
297.6926797004962,0.014171625519335167
300.5669154435891,0.014628140943647385
303.44025818556474,0.0151126999030179
306.2785177554506,0.015621311947965988
309.150086361853,0.016168739354331014
311.98659372863403,0.016744624938824282
314.85638984211255,0.01736578893024589
317.69114662786524,0.018020566543320352
320.55917188903913,0.01872814746876244
323.42630704161274,0.019484584196567095
326.25843576130865,0.02028384091794131
329.1238025236089,0.021149285916958423
331.9541847135806,0.022064560074404303
334.8177847211591,0.023056212377105152
337.6464219965019,0.024105194700371257
340.5082568828984,0.02524151257669304
343.3351508567066,0.026442794942602703
346.1952222534492,0.027742702121461293
349.0203745368344,0.029114788240847102
351.8786840734356,0.030596448667232875
354.7361080202609,0.03217569926473544
357.55864557949826,0.03383542615205222
360.4143101115624,0.03561843248390812
363.23511000427607,0.037484231440704195
366.08901674608205,0.039478799106447644
368.90808057645336,0.04155451377439484
371.7602311504961,0.043759937590997715
374.57756052071636,0.04603966903735842
377.42795654749716,0.04844407219540567
380.2435530577968,0.050909672233699896
383.0921961558306,0.05348769698303861
385.90606140446107,0.05610682137850926
388.7529531902692,0.05881811444994506
391.56508877352826,0.06154329155656949
394.41023086164205,0.06433224537805762
397.2206383738594,0.06710139571028763
400.0640323768239,0.06989854368016891
402.8727134103756,0.07263727945743811
405.71436093876036,0.07536259075598203
408.5213170840616,0.07798843158155849
411.36121974646085,0.08055651889922102
414.16645259197685,0.08298490220370712
417.00461199500205,0.08531187767651485
419.8081231272481,0.08746356363150626
422.6107791472823,0.08945210282423698
425.446331879084,0.09128423479316808
428.2472685572284,0.09290518488747106
431.0810820327788,0.09434613913995032
433.88030095069917,0.09556886085811322
436.71237676973396,0.09660307367047191
439.5098795071426,0.09742889910453613
442.3402192674366,0.09807586568254782
445.1360074021177,0.09854295134901433
447.930943955329,0.09885815132961778
450.75868780728706,0.09904722684164154
453.5519121161087,0.09913509556431539
456.3779238904244,0.09915873778014664
459.1694375278166,0.09915658294748397
461.99371881542174,0.09917263040650685
464.7835233524238,0.09925375538422702
467.5724790401364,0.0994499768107667
470.39417274803054,0.09981933250818711
473.18142168360646,0.10040728382212144
476.00138886887726,0.10128300637899189
478.7869326185464,0.10247787812628259
481.60517486533354,0.10406960757267925
484.3890149934232,0.10606179794858302
487.17200899273666,0.10850270015524002
489.9876719528438,0.11144945863088462
492.76896466880135,0.1148354847626914
495.5829066375736,0.11872681515430428
498.3624996297294,0.12299398874357455
501.14124842855017,0.12762103100727035
503.9526170105346,0.13258484427879344
506.7296684166504,0.13765923786491485
509.505876786945,0.14277347903865903
512.3146755106209,0.14784065532329405
515.0891888150436,0.15258019287331978
517.8962728359329,0.1569380703617921
520.6690926264382,0.16064726380679326
523.4410713071484,0.16361163454559166
526.2455913408958,0.1657184967700776
529.0158788274384,0.16681124635021116
531.785326356061,0.1668480035834006
534.5872859139781,0.16577389189302935
537.3550445639485,0.16361828892036484
540.1219644057746,0.16041759815184398
542.9213669927594,0.15619446508952972
545.686600267225,0.15115983277221265
548.4509958812232,0.14540263205525886
551.2478449957853,0.1389937535131592
554.0105563494981,0.13224570549098108
556.805701690384,0.12515871250105318
559.5667303225964,0.11805481345739538
562.3269232040038,0.11098974965836043
565.0862807140293,0.10408517758236921
567.8780333537688,0.09736458672604129
570.6357112050464,0.09106887635478413
573.3925548263542,0.085174985933832
576.1817644509756,0.07965875266809386
578.9369307080196,0.07467254638736609
581.6912638744288,0.0701535715969424
584.4779339570123,0.06604907105953063
587.2305920494691,0.06244070296159128
589.9824181885451,0.05925446658138488
592.7665521958479,0.056432753844920414
595.5167055471175,0.05401454402924519
598.2660280801974,0.051936575748750935
601.0145201715131,0.050175000359057705
603.7952814999189,0.04870090989633414
606.5421038421155,0.047583008395497645
609.2880968749887,0.047333257930005854
612.0663301881068,0.06005826974700551
614.8106557483188,0.04563299358120327
617.554153129593,0.044778411233123566
620.2968227067649,0.0444734198306722
623.0716940541533,0.04439994780572771
625.8126991844802,0.044513603565513316
628.552877638358,0.04479981617410294
631.2922297897167,0.045255287888767086
634.0637452701958,0.045889749480500557
636.8014359932095,0.0466923687730159
639.5383015386324,0.04767649796738052
642.3073015987065,0.04886669285154849
645.0425079771339,0.050246164614670324
647.7768903008473,0.05184146061483516
650.5104489421938,0.05366807595891748
653.2431842732913,0.055743238818937356
656.0080062575216,0.05811554439155353
658.7390861754284,0.06074841464235185
661.4693439025905,0.06368867023006591
664.1987798102273,0.06695641564909253
666.9602641357596,0.0706166093177969
669.6880476268889,0.0745997508263144
672.4150104152941,0.07896207975963002
675.141152871307,0.08371480091274107
677.8993055782594,0.08892916767063137
680.6237986072192,0.0944826889331928
683.3474724178923,0.10043119210786983
686.0703273797008,0.10676546083539648
688.7923638618704,0.11347159888675422
691.5463630106569,0.12061963571524467
694.2667537902307,0.1280211996809347
696.9863272009134,0.13574385589909374
699.705083611032,0.1437792939292829
702.4230233886883,0.1521320503007344
705.1728783546314,0.16093335116980936
707.8891761429404,0.17002596008152374
710.6046584062024,0.17960007552524868
713.3193255116239,0.18978647547485375
716.033177826208,0.20076506500186136
718.7462157167283,0.21276721624117437
721.491111983778,0.2262417589307678
724.2025123243511,0.2411865463811813
726.9130993442814,0.2580824193473248
729.6228734094693,0.27723723730906774
732.3318348855792,0.2988933109595509
735.0399841380749,0.3231775498334899
737.7799351068679,0.35039463419493644
740.4864512328204,0.37967029389634993
743.1921562345997,0.41090912115974815
745.8970504767931,0.44359577813676965
748.6011343237551,0.4772492512477048
751.3044081396256,0.5116596055513939
754.0394271625555,0.5476457305096473
756.741072259374,0.5856716966293075
759.4419084205874,0.6285558759855683
762.1419360094733,0.6794284124975121
764.8411553890837,0.7408841099553538
767.539566922238,0.8126942778235872
770.2371709715626,0.8892179901539242
772.9339678994475,0.9582393929419221
775.6624349602753,1.0034314321440818
778.3576090181923,1.0082187078631708
781.0519770449282,0.9661251579976494
783.7455394020071,0.8818500529950534
786.4382964507422,0.7702264699472829
789.1302485522319,0.6500834179201214
791.8213960673565,0.5375505548703013
794.5117393567816,0.44222070433492405
797.2012787809545,0.36702076962172275
799.922404211542,0.309804192761468
802.6103273114531,0.26838832131491824
805.2974476305062,0.23831171895826872
807.9837655282827,0.21653937319671065
810.6692813641639,0.20083078970345286
813.3539954973021,0.1896139997841121
816.037908286642,0.18179996927579836
818.7210200909067,0.1766258316264373
821.4033312686151,0.17354385602376424
824.0848421780756,0.17214798399588138
826.7655531773598,0.17212608479684852
829.4777478409233,0.17324801149337135
832.1568504666102,0.17527781645427146
834.8351542594137,0.17804374595914346
837.5126595765614,0.18138597264527392
840.1893667750774,0.18515766044212056
842.8652762117599,0.1892212788739462
845.5403882432074,0.19344662269204213
848.2147032257963,0.19771012889460865
850.8882215157028,0.20189519142693516
853.5609434688704,0.20589323965375875
856.2328694410462,0.20960538838718773
858.9039997877626,0.21294449685084338
861.5743348643446,0.2158374996441934
864.2438750258916,0.21822790011533671
866.9126206273068,0.220078348917583
869.5805720232747,0.22137326865047777
872.2477295682729,0.22212152608136618
874.9140936165568,0.22235918653092956
877.5796645221853,0.2221523900142265
880.2444426389957,0.22160033041923685
882.9084283206321,0.22083814647098532
885.5716219205024,0.22003918826207092
888.2340237918252,0.2194155665650262
890.8956342876045,0.21921515456579269
893.5564537606224,0.21971246302717432
896.2164825634645,0.22119041875287743
898.8757210485091,0.22391060050498418
901.566194253428,0.2281309366539566
904.2238436478765,0.23383616157148748
906.88070378462,0.24098749974305336
909.5047788508018,0.24920097598145133
912.1600710251078,0.2582035716752465
914.8145749914547,0.2672698903733136
917.4682911007549,0.2757190452041513
920.1212197037094,0.282981783963126
922.7733611508156,0.2887967843368875
925.4247157923564,0.2933992101894129
928.0752839784072,0.29762878433407974
930.725066058847,0.3028510777905748
933.3740623833291,0.31057532633219964
936.0222733013143,0.3217262015398089
938.669699162052,0.33574104044117997
941.3163403145809,0.34996061195059647
943.9621971077358,0.3599196601866565
946.607269890148,0.3608639837907952
949.2515590102339,0.35037529640106424
951.8950648162136,0.3334752881459796
954.5377876560888,0.3206237288269145
957.1797278776648,0.2731785292148814
959.8208858285398,0.21460646269752529
962.4612618561077,0.17468911543373067
965.1008563075484,0.14484336957028865
967.7396695298376,0.12209011720484637
970.3777018697583,0.10489950411040166
973.0149536738754,0.09190181966712248
975.65142528855,0.08195059885677657
978.2871170599428,0.07418062292738843
980.8902880408277,0.06804684082306858
983.5244305486303,0.06298188233724403
986.1577942462391,0.058778762505195585
988.7903794789963,0.05523565170035299
991.4221865920408,0.0522092130637718
994.0532159303111,0.04959525412315833
996.6834678385349,0.047316310578678
999.3129426612431,0.04531358939652961
1001.9416407427561,0.04354163737872736
1004.5695624271975,0.04196473392897396
1007.1967080584836,0.04055439591790078
1009.8230779803271,0.0392876155721827
1012.4170434801454,0.03815867290823306
1015.041872349022,0.037124648698334865
1017.665926534246,0.036187064300940805
1020.2892063787294,0.03533502517230928
1022.9117122251773,0.034559306035728425
1025.5334444160871,0.03385204077174906
1028.15440329376,0.03320647969272154
1030.7745892002931,0.03261679762443875
1033.3940024775802,0.032077940736230465
1035.9810981708106,0.0315911756622507
1038.598976513018,0.031140808001237266
1041.2160832463414,0.030729648659972686
1043.832418711885,0.03035470040862731
1046.447983250535,0.03001330969470677
1049.0627772029802,0.029703120048377933
1051.676800909714,0.02942203303227373
1054.290054711022,0.029168175342252925
1056.8710678120515,0.02894247561421278
1059.48279208834,0.028737940642793797
1062.093747474777,0.02855612287218847
1064.7039343108554,0.028395807679297357
1067.313352935871,0.028255901671184712
1069.9220036889128,0.0281354197586798
1072.4984711957586,0.02803459513887443
1075.105596462614,0.027950175588360694
1077.7119548694973,0.027882778042893484
1080.317546754708,0.027831751410806613
1082.9223724563308,0.027796509651199966
1085.5264323122756,0.027776526070748868
1088.1297266602414,0.0277713283123392
1090.700904617097,0.027780299560734502
1093.3026781742628,0.027803285750409065
1095.90368723129,0.027839928961018074
1098.5039321250988,0.02788993457374322
1101.1034131923952,0.027953044949595163
1103.6708254619662,0.028028045636424217
1106.2687890782108,0.02811657722099845
1108.8659898728438,0.028217642256574957
1111.4624281817887,0.028331109967572436
1114.0581043407765,0.02845687743557393
1116.6217591897112,0.02859313335472495
1119.2159212276165,0.02874315082995797
1121.8093221175222,0.028905315679162435
1124.4019621943662,0.02907962600093518
1126.9938417929043,0.029266103465384788
1129.5537474636767,0.029462326108866902
1132.1441162613737,0.029673146673727703
1134.7337255797866,0.02989633587799894
1137.322575752878,0.030132006281560982
1139.9106671144218,0.03038029303462941
1142.466831825419,0.03063813198957972
1145.0534156966605,0.030911990814335065
1147.6392417524658,0.031199006335099044
1150.2243103258224,0.031499406273832804
1152.7774899721844,0.03180957693825512
1155.3610536951164,0.03213735772225775
1157.9438609293902,0.032479351486191535
1160.5259120072114,0.03283588782060502
1163.1072072606003,0.03320732421600954
1165.6566606759006,0.033589295369804116
1168.2364543720396,0.033991530365839594
1170.8154932346333,0.034409912576321935
1173.3937775949307,0.034844924353811944
1175.940257690534,0.03529153169068071
1178.5170431196166,0.03576117717480144
1181.0930750349762,0.03624911367117439
1183.6683537670833,0.03675597854773391
1186.2118657414467,0.037275991752228996
1188.7856481622657,0.03782255977125951
1191.3586783861065,0.03839024238427023
1193.9309567426717,0.03897987682138772
1196.471505782134,0.03958484074205772
1199.0422904412299,0.04022083997924908
1201.6123242170252,0.040881665093742574
1204.1506566845674,0.04155998609586188
1206.7191987172919,0.04227351847024511
1209.2869908489847,0.043015417804801184
1211.8540334080099,0.043787047718188615
1214.389411983815,0.04458000978258177
1216.9549654029506,0.04541520522147799
1219.5197702293917,0.04628485139424658
1222.0529389950316,0.04717963846693008
1224.61625662804,0.04812334200322584
1227.1788266466283,0.049107399234126395
1229.7406493778217,0.05013410827597323
1232.2708732581305,0.05119276142612277
1234.8312113884967,0.05231184085950521
1237.3908032074723,0.05348162353224486
1239.9188240118929,0.05469018767449439
1242.4769331685857,0.055970396113046356
1245.0342969881858,0.05731155069423926
1247.560117592806,0.05870033389860188
1250.116000685306,0.06017494595200815
1252.6711394133126,0.06172359482602091
1255.194762689218,0.06333132659981784
1257.7484226219312,0.06504288541102261
1260.3013391610693,0.06684520624832811
1262.822767974354,0.06872134860010466
1265.3742076466478,0.07072407661763024
1267.924904894593,0.07283872748072422
1270.4441421063602,0.07504580033215151
1272.993364412563,0.07740775771153331
1275.5418452619597,0.07990766224408048
1278.0588937283464,0.08252239981943252
1280.6059015577484,0.08532570694161692
1283.1521688962057,0.08829687134274102
1285.6670314683906,0.09140708431069926
1288.2118277052796,0.09474197273109115
1290.755884415401,0.09827373755571826
1293.2685639396113,0.10196370195435138
1295.811151463251,0.10590712690979627
1298.3530004226377,0.11006227243213164
1300.8634997401532,0.11437274475723644
1303.403881424827,0.11893505824783489
1305.9129317732186,0.12362314538629199
1308.4518474532706,0.12852532358981855
1310.9900261682633,0.13354763112169246
1313.4969010306886,0.13857750557779003
1316.0336156473168,0.1436732161335807
1318.5695942569437,0.14869485901747104
1321.074296461582,0.15349432043001193
1323.6088128757874,0.1580903669614931
1326.112071126503,0.1622730526809547
1328.6451266095319,0.16604855371579716
1331.1774476773753,0.16928026291525658
1333.6785379692556,0.17187921308417567
1336.209400003383,0.17387675408745132
1338.7090494631484,0.1752248377666833
1341.2384537241596,0.17598853215496513
1343.76712515721,0.17620874983968732
1346.2646113435585,0.17597392245171226
1348.7918268954818,0.17537400084849952
1351.2878753625337,0.17452233088874272
1353.8136362903097,0.17349595462864276
1356.338665972784,0.17239417007023383
1358.832555838333,0.17130792266031838
1361.3561327831994,0.1702740129393739
1363.8485880333137,0.16936570798549427
1366.3707134939323,0.16859668285263502
1368.8921092873425,0.16800303966098096
1371.3824105944368,0.1676025309690398
1373.9023567847216,0.16739106321770808
1376.3912265713043,0.16737289348296558
1378.9097244082113,0.16754169125054658
1381.3971639082774,0.16788387433403443
1383.914214640121,0.16839535930287208
1386.4002250862322,0.16904967333559245
1388.9158299598967,0.16984708120964484
1391.4307079939972,0.17076379700030933
1393.9145728441363,0.171769851819369
1396.4280068914595,0.17287263142321843
1398.9104457665926,0.17402873619257417
1401.422437070447,0.17524949109410617
1403.9034511981918,0.1764892459270394
1406.4140010004412,0.17776223973812122
1408.893591607004,0.17902265964519526
1411.4027011481012,0.18028658350711618
1413.8808694582804,0.18150993652401634
1416.388539977259,0.1827096389074563
1418.8954870924463,0.18385857058600558
1421.3715199489052,0.1849331484273267
1423.877029901585,0.18594999675133078
1426.3516435212223,0.18687643322593264
1428.8557175468777,0.1877280762581038
1431.3289131495767,0.188478901456442
1433.8315524822574,0.1891430469455216
1436.3033312865118,0.18970181037720837
1438.8045371588632,0.19016750316726574
1441.2749003817698,0.19052898466456764
1443.7746740250223,0.1907965053000199
1446.2436228822844,0.19096629333333906
1448.7419655262602,0.19104640634279835
1451.2095012321843,0.19103984597695084
1453.7064141053015,0.19095244425568253
1456.1725378728079,0.19079304194736169
1458.6680222020732,0.19056531260111423
1461.1327352426997,0.1902827517403928
1463.6267922537227,0.18994704147864674
1466.090095777603,0.1895749979155443
1468.582726694589,0.1891665739796339
1471.044621910496,0.18874052110328732
1473.5358279562424,0.18829540787239277
1475.996316071556,0.18785057141724104
1478.4860984674815,0.1874036020690424
1480.9451806882025,0.18697317685449866
1483.4335406543069,0.18655634643891134
1485.8912181850574,0.18617003357504744
1488.3781569399653,0.18581118705053096
1490.8344309839958,0.1854940617960804
1493.2900079848114,0.185218984572321
1495.7748215041174,0.1849875919596747
1498.2289968168734,0.18480886333829238
1500.7123921617567,0.1846810968781979
1503.1651669862695,0.18460918041843952
1505.647145370498,0.18459236737934773
1508.0985209052233,0.18463122858243328
1510.579083541168,0.18472603720124775
1513.02906098319,0.1848730152578938
1515.5082090818432,0.18507339060125086
1517.9567896268818,0.18531919785998344
1520.4046764008053,0.18560864500235327
1522.8817092402714,0.1859412775262263
1525.3282009046197,0.1863035891550315
1527.803822224585,0.18669808849734457
1530.2489199716838,0.18710834346924235
1532.7231309783128,0.1875366559815541
1535.16683599912,0.18796452286210907
1537.6098493197496,0.18838840884332447
1540.0819513813403,0.18880411120164764
1542.5235737559778,0.1891920424934562
