Raman Shift (cm-1),Fitted Intensity
159.26151312198635,0.006993415772498323
162.17892251266312,0.007112492113682206
165.06070388440276,0.007233993585154733
167.97629817665074,0.007361036645148118
170.89098012548493,0.0074923836193689424
173.77006778237046,0.00762660505160857
176.68293717714914,0.0077671621728132925
179.59489550712533,0.007912709251719692
182.50594319967058,0.008063506366279064
185.38144153980102,0.008217936160058992
188.29068006676243,0.008380012583417498
191.19900923170644,0.008548223918249909
194.07182265961455,0.008720787925343174
196.97834519226308,0.008902218739441905
199.8839596359394,0.009090860410536195
202.75409191031576,0.009284740233922317
205.65790225025557,0.009488963947169003
208.5608057718964,0.009701710057612084
211.42826064439942,0.009920783737501488
214.32936258615155,0.010151993060020549
217.22955897789507,0.01039332402695059
220.09434019320543,0.010642319734128103
222.9927375242005,0.010905623811918137
225.89023057112718,0.011180994551184265
228.75234186693342,0.011465661564704372
231.64803836756255,0.01176726247173166
234.54283184768065,0.012083280568373945
237.4022769547155,0.012410564774664288
240.2952763983085,0.012757931848920441
243.18737408261222,0.0131225253060365
246.04415672466348,0.013500724655254695
248.93446287752522,0.013902736885054966
251.82386852998388,0.014325276227996646
254.67799242389083,0.014764135589362317
257.565609045334,0.015231144811121011
260.41796602711474,0.015716468471309714
263.3037952786035,0.01623315153258568
266.18872612093764,0.01677689937441106
269.0384305290536,0.01734216677959952
271.9215764941182,0.017944028136531752
274.8038253026716,0.018577331427603674
277.65088083558294,0.01923543848196776
280.5313472549242,0.01993567911512232
283.37664243438485,0.02066280884954547
286.2553281173605,0.02143576215199502
289.13311872473423,0.022247365234772224
291.97577117291803,0.023088533208141415
294.85178352428557,0.023980714967139636
297.6926797004962,0.024903707095522937
300.5669154435891,0.025880655962952873
303.44025818556474,0.026901429449556168
306.2785177554506,0.02795361087426812
309.150086361853,0.029062838513797346
311.98659372863403,0.030202720619302393
314.85638984211255,0.03140044730398424
317.69114662786524,0.032626908987150635
320.55917188903913,0.03391070411887962
323.42630704161274,0.03523596752080563
326.25843576130865,0.03658446672035194
329.1238025236089,0.03798653169342355
331.9541847135806,0.03940621625713858
334.8177847211591,0.04087467139001482
337.6464219965019,0.04235347085024643
340.5082568828984,0.04387426780347053
343.3351508567066,0.045396485838661065
346.1952222534492,0.04695192297740746
349.0203745368344,0.04849832174191778
351.8786840734356,0.05006723891408658
354.7361080202609,0.05163395931854623
357.55864557949826,0.05317355440932325
360.4143101115624,0.05471645821812197
363.23511000427607,0.05621916490804121
366.08901674608205,0.05771085487167501
368.90808057645336,0.05914901439754515
371.7602311504961,0.06056118286991368
374.57756052071636,0.06190680807380859
377.42795654749716,0.06321143137745688
380.2435530577968,0.0644374544207242
383.0921961558306,0.06560810697112206
385.90606140446107,0.06668971024898404
388.7529531902692,0.06770292450203369
391.56508877352826,0.0686188770221305
394.41023086164205,0.06945546775132777
397.2206383738594,0.07018938575155984
400.0640323768239,0.07083565801540387
402.8727134103756,0.07137711402474528
405.71436093876036,0.07182588446713123
408.5213170840616,0.07217130394222987
411.36121974646085,0.07242268493379818
414.16645259197685,0.07257599375968439
417.00461199500205,0.07263791864157218
419.8081231272481,0.07261093708952858
422.6107791472823,0.07250124367592027
425.446331879084,0.07231205830867306
428.2472685572284,0.07205486306911549
431.0810820327788,0.07173157618587116
433.88030095069917,0.07135889319895956
436.71237676973396,0.07093801090958955
439.5098795071426,0.07048999777779207
442.3402192674366,0.07001635554395497
445.1360074021177,0.06954155312185642
447.930943955329,0.06907423005205827
450.75868780728706,0.0686245921578135
453.5519121161087,0.06822010696364922
456.3779238904244,0.06786939311161877
459.1694375278166,0.06760023557848757
461.99371881542174,0.06742729704786417
464.7835233524238,0.06737685353336062
467.5724790401364,0.0674693704300704
470.39417274803054,0.06773323664519701
473.18142168360646,0.06818717242423963
476.00138886887726,0.06886756434160811
478.7869326185464,0.0697824962808767
481.60517486533354,0.07097683706351779
484.3890149934232,0.07244146472476906
487.17200899273666,0.07420341817105822
489.9876719528438,0.07629754125396639
492.76896466880135,0.07867374620764186
495.5829066375736,0.08137864366520343
498.3624996297294,0.08432539984296061
501.14124842855017,0.08750910618338795
503.9526170105346,0.0909220783186028
506.7296684166504,0.09441928657970554
509.505876786945,0.09796418753926009
512.3146755106209,0.10151118176424487
515.0891888150436,0.10487946654274659
517.8962728359329,0.10804788096636979
520.6690926264382,0.11084058747132196
523.4410713071484,0.11320289742465053
526.2455913408958,0.11507005153976221
529.0158788274384,0.11632861636077306
531.785326356061,0.11695515612276118
534.5872859139781,0.11691852156166987
537.3550445639485,0.1162167901293024
540.1219644057746,0.11487478657418763
542.9213669927594,0.11290948678340355
545.686600267225,0.11043183847439503
548.4509958812232,0.10750130522173795
551.2478449957853,0.1041668784728214
554.0105563494981,0.1006055242524415
556.805701690384,0.09683171153660218
559.5667303225964,0.09303047361375398
562.3269232040038,0.0892445599364896
565.0862807140293,0.08555056986995037
567.8780333537688,0.08197143859502291
570.6357112050464,0.07864401875868775
573.3925548263542,0.0755624385604312
576.1817644509756,0.07271980360874614
578.9369307080196,0.07019782996683056
581.6912638744288,0.06796519814426952
584.4779339570123,0.06599654617917732
587.2305920494691,0.06432906292572833
589.9824181885451,0.06292383001523559
592.7665521958479,0.06175196735908333
595.5167055471175,0.0608236536319934
598.2660280801974,0.06010586209663519
601.0145201715131,0.059581749621455106
603.7952814999189,0.05923276510263363
606.5421038421155,0.05905356081706795
609.2880968749887,0.05902760608220991
612.0663301881068,0.05914819146595152
614.8106557483188,0.05940583614815101
617.554153129593,0.05979703394668052
620.2968227067649,0.06032010454789555
623.0716940541533,0.06098442722812284
625.8126991844802,0.061777141425883524
628.552877638358,0.06271042766021495
631.2922297897167,0.06379134920607729
634.0637452701958,0.06504468449321887
636.8014359932095,0.066451169947189
639.5383015386324,0.06803655736887605
642.3073015987065,0.06983624968273243
645.0425079771339,0.07182087083709056
647.7768903008473,0.07402408449129476
650.5104489421938,0.07645882773024075
653.2431842732913,0.07913692076209738
656.0080062575216,0.08210527124362993
658.7390861754284,0.08530073178477979
661.4693439025905,0.0887612462875266
664.1987798102273,0.09248697914664179
666.9602641357596,0.0965230787660984
669.6880476268889,0.10076380632464868
672.4150104152941,0.10524073632869942
675.141152871307,0.1099336242531741
677.8993055782594,0.11487714076373075
680.6237986072192,0.11992384444462431
683.3474724178923,0.12509906382349603
686.0703273797008,0.13036914510475822
688.7923638618704,0.13570150232556966
691.5463630106569,0.14113225124500708
694.2667537902307,0.146510730096469
696.9863272009134,0.15189199360791505
699.705083611032,0.15728313604617417
702.4230233886883,0.1627135191131533
705.1728783546314,0.1683090096025619
707.8891761429404,0.17403270436011212
710.6046584062024,0.18009202337971741
713.3193255116239,0.18668468704905775
716.033177826208,0.19407543711080816
718.7462157167283,0.20260616659549321
721.491111983778,0.21283587448207122
724.2025123243511,0.225035336687606
726.9130993442814,0.23989351926990266
729.6228734094693,0.25801987295705525
732.3318348855792,0.27999263478724806
735.0399841380749,0.30626710462219503
737.7799351068679,0.33746113827842816
740.4864512328204,0.3726978878394707
743.1921562345997,0.4117570008000131
745.8970504767931,0.453650220776506
748.6011343237551,0.497108093393575
751.3044081396256,0.5409057335596648
754.0394271625555,0.584907517528019
756.741072259374,0.6286371244340956
759.4419084205874,0.6749272042256365
762.1419360094733,0.7276284474039412
764.8411553890837,0.7904719157698705
767.539566922238,0.8635761142250863
770.2371709715626,0.9393363411269225
772.9339678994475,1.00092808625852
775.6624349602753,1.0267400614064368
778.3576090181923,0.9995059232267446
781.0519770449282,0.9179652915658614
783.7455394020071,0.7967904841335424
786.4382964507422,0.6599641040948251
789.1302485522319,0.5299746429467824
791.8213960673565,0.4205281706682638
794.5117393567816,0.3356140243792744
797.2012787809545,0.2728083607235474
799.922404211542,0.22677275362108887
802.6103273114531,0.19379512516198621
805.2974476305062,0.16956599682242512
807.9837655282827,0.15154849516710125
810.6692813641639,0.13806806164126348
813.3539954973021,0.12803228755471371
816.037908286642,0.12072447426863397
818.7210200909067,0.11566705803740993
821.4033312686151,0.112531892726848
824.0848421780756,0.11107833276371462
826.7655531773598,0.11110754362691312
829.4777478409233,0.11245039993683115
832.1568504666102,0.11486143028526473
834.8351542594137,0.11810274413462497
837.5126595765614,0.12188931845114856
840.1893667750774,0.1259074854465205
842.8652762117599,0.12983757652465144
845.5403882432074,0.13338593313943045
848.2147032257963,0.13632016683667464
850.8882215157028,0.1384999211450024
853.5609434688704,0.13989562338328815
856.2328694410462,0.1405900237838752
858.9039997877626,0.14076119123201528
861.5743348643446,0.1406499833693916
864.2438750258916,0.14051856499043755
866.9126206273068,0.14060832902524398
869.5805720232747,0.1411052167729293
872.2477295682729,0.14211826441235115
874.9140936165568,0.14367403191275338
877.5796645221853,0.14572634271201682
880.2444426389957,0.14817822640276915
882.9084283206321,0.15091148293308546
885.5716219205024,0.15381886771863562
888.2340237918252,0.15683427405845551
890.8956342876045,0.1599571201165756
893.5564537606224,0.16326813917676117
896.2164825634645,0.16693474770268876
898.8757210485091,0.1712050799848766
901.566194253428,0.17646016096380565
904.2238436478765,0.1829259067118622
906.88070378462,0.19100659528308592
909.5047788508018,0.20087898310654728
912.1600710251078,0.21301959308510887
914.8145749914547,0.22746798640959992
917.4682911007549,0.24429349650851193
920.1212197037094,0.263553492255911
922.7733611508156,0.28544642623188665
925.4247157923564,0.3105905090523043
928.0752839784072,0.3404420827211681
930.725066058847,0.3777265725194671
933.3740623833291,0.4263818295298806
936.0222733013143,0.49001714722837736
938.669699162052,0.5680665174703852
941.3163403145809,0.6508639994873799
943.9621971077358,0.7181759510396887
946.607269890148,0.7459676201223474
949.2515590102339,0.719649096670675
951.8950648162136,0.6438374951227324
954.5377876560888,0.5397488330639356
957.1797278776648,0.4326046615672836
959.8208858285398,0.3398782304327941
962.4612618561077,0.2678059298563409
965.1008563075484,0.21478631967353387
967.7396695298376,0.17629886708410647
970.3777018697583,0.14798278329575887
973.0149536738754,0.12663416620662818
975.65142528855,0.11013327559799918
978.2871170599428,0.09710702603914675
980.8902880408277,0.08675945686759692
983.5244305486303,0.07821832585724454
986.1577942462391,0.07117738328800513
988.7903794789963,0.06531018513790404
991.4221865920408,0.06037310968713974
994.0532159303111,0.05618153496797443
996.6834678385349,0.05259381992998241
999.3129426612431,0.04950013353776121
1001.9416407427561,0.046814467268108326
1004.5695624271975,0.04446882841935143
1007.1967080584836,0.04240897059237418
1009.8230779803271,0.04059122706141976
1012.4170434801454,0.03899844485421677
1015.041872349022,0.03756301137598898
1017.665926534246,0.03628153507031292
1020.2892063787294,0.035134073858240536
1022.9117122251773,0.03410394181103227
1025.5334444160871,0.03317708750181786
1028.15440329376,0.03234160688340377
1030.7745892002931,0.03158735856315645
1033.3940024775802,0.030905657634879402
1035.9810981708106,0.03029609859900164
1038.598976513018,0.02973741264223146
1041.2160832463414,0.029231793499656506
1043.832418711885,0.028774344700682825
1046.447983250535,0.028360783157924
1049.0627772029802,0.027987349476998505
1051.676800909714,0.027650733400103985
1054.290054711022,0.027348011520068653
1056.8710678120515,0.02707968809391476
1059.48279208834,0.026836941748083015
1062.093747474777,0.02662118049403943
1064.7039343108554,0.026430578085979196
1067.313352935871,0.02626350293714115
1069.9220036889128,0.026118494885026565
1072.4984711957586,0.025995623419898556
1075.105596462614,0.02589072823715742
1077.7119548694973,0.02580437391645611
1080.317546754708,0.025735610562174605
1082.9223724563308,0.02568358360384726
1085.5264323122756,0.02564752398225994
1088.1297266602414,0.025626739569810743
1090.700904617097,0.02562059659366518
1093.3026781742628,0.025628390581039075
1095.90368723129,0.025649780002001573
1098.5039321250988,0.025684313240996914
1101.1034131923952,0.025731586092918673
1103.6708254619662,0.02579044669401658
1106.2687890782108,0.025862012717685918
1108.8659898728438,0.02594535560327882
1111.4624281817887,0.026040224654079007
1114.0581043407765,0.026146400647495346
1116.6217591897112,0.02626221496674623
1119.2159212276165,0.02639033118274433
1121.8093221175222,0.026529266180153367
1124.4019621943662,0.026678906631517577
1126.9938417929043,0.026839161879181443
1129.5537474636767,0.027007842327665357
1132.1441162613737,0.027189013680144918
1134.7337255797866,0.027380652645952987
1137.322575752878,0.027582748208340748
1139.9106671144218,0.027795307228894887
1142.466831825419,0.028015603944496075
1145.0534156966605,0.028249051745425212
1147.6392417524658,0.028493084174971775
1150.2243103258224,0.028747773927777543
1152.7774899721844,0.029009946862547625
1155.3610536951164,0.029286099800657894
1157.9438609293902,0.029573218805147357
1160.5259120072114,0.02987143717854013
1163.1072072606003,0.030180903063403132
1165.6566606759006,0.03049784482936297
1168.2364543720396,0.03083016865452192
1170.8154932346333,0.031174270920901456
1173.3937775949307,0.03153035906026441
1175.940257690534,0.03189414474193794
1178.5170431196166,0.032274736192280266
1181.0930750349762,0.0326680242455871
1183.6683537670833,0.03307427798825771
1186.2118657414467,0.03348864835929097
1188.7856481622657,0.03392154061206192
1191.3586783861065,0.03436830037361597
1193.9309567426717,0.03482926357632254
1196.471505782134,0.03529896682298131
1199.0422904412299,0.035789234786526736
1201.6123242170252,0.03629481899286906
1204.1506566845674,0.03680975428219145
1206.7191987172919,0.03734702709988046
1209.2869908489847,0.037900905868309624
1211.8540334080099,0.038471865331775934
1214.389411983815,0.03905320591310869
1216.9549654029506,0.039659623372636815
1219.5197702293917,0.04028468222876091
1222.0529389950316,0.040921077191898775
1224.61625662804,0.04158492564347986
1227.1788266466283,0.042269214506237635
1229.7406493778217,0.04297460594898823
1232.2708732581305,0.04369290139434954
1234.8312113884967,0.044442343309664706
1237.3908032074723,0.04521507254272962
1239.9188240118929,0.04600215032963702
1242.4769331685857,0.046823616680210366
1245.0342969881858,0.0476709182082322
1247.560117592806,0.04853431003404331
1250.116000685306,0.049435845767179645
1252.6711394133126,0.0503662262340286
1255.194762689218,0.05131483290628833
1257.7484226219312,0.05230600162135828
1260.3013391610693,0.05332964371324703
1262.822767974354,0.054374205291031805
1265.3742076466478,0.055466654282823276
1267.924904894593,0.0565960936185645
1270.4441421063602,0.05774999592491104
1272.993364412563,0.05895844857225517
1275.5418452619597,0.06020979107055159
1278.0588937283464,0.06149055076027354
1280.6059015577484,0.06283467731839357
1283.1521688962057,0.06422994870577889
1285.6670314683906,0.06566214664852008
1288.2118277052796,0.06717034531774443
1290.755884415401,0.06874234879892803
1293.2685639396113,0.07036382988236262
1295.811151463251,0.07208138919958254
1298.3530004226377,0.07388440289421042
1300.8634997401532,0.07576017162537078
1303.403881424827,0.077767825143594
1305.9129317732186,0.07987557906309789
1308.4518474532706,0.08215617874686605
1310.9900261682633,0.08461191434872051
1313.4969010306886,0.08724314980212555
1316.0336156473168,0.09015430739223923
1318.5695942569437,0.09335968917931838
1321.074296461582,0.0968554913895147
1323.6088128757874,0.10074280496094451
1326.112071126503,0.10487915662850236
1328.6451266095319,0.10919010982109757
1331.1774476773753,0.1132769462264573
1333.6785379692556,0.11663824019440593
1336.209400003383,0.11899878544174598
1338.7090494631484,0.12029371182865937
1341.2384537241596,0.12090152052447711
1343.76712515721,0.12126725028377819
1346.2646113435585,0.12173971019721436
1348.7918268954818,0.12251166358137563
1351.2878753625337,0.12361665910391678
1353.8136362903097,0.12506691026198588
1356.338665972784,0.12680964222918015
1358.832555838333,0.12877309877059417
1361.3561327831994,0.1309628203301556
1363.8485880333137,0.13329044432483042
1366.3707134939323,0.13578261300650124
1368.8921092873425,0.13838655243294848
1371.3824105944368,0.1410479799117556
1373.9023567847216,0.1438135489401089
1376.3912265713043,0.14660067051648218
1378.9097244082113,0.14946251679966652
1381.3971639082774,0.15231645645897607
1383.914214640121,0.15521875251116699
1386.4002250862322,0.15808662033870904
1388.9158299598967,0.16097705153630862
1391.4307079939972,0.16384194523904466
1393.9145728441363,0.1666343449530154
1396.4280068914595,0.1694091938843992
1398.9104457665926,0.17208658307713864
1401.422437070447,0.17471850889268106
1403.9034511981918,0.17722848317317572
1406.4140010004412,0.17966456486338467
1408.893591607004,0.1819553379119905
1411.4027011481012,0.18414412246006678
1413.8808694582804,0.18616633171553737
1416.388539977259,0.18805991662887472
1418.8954870924463,0.18978867674586952
1421.3715199489052,0.19132529547428942
1423.877029901585,0.19269880803164616
1426.3516435212223,0.19386904924863899
1428.8557175468777,0.19485875774223324
1431.3289131495767,0.19563983026176437
1433.8315524822574,0.19622854938282017
1436.3033312865118,0.19660958599731412
1438.8045371588632,0.19679270010158198
1441.2749003817698,0.19677553318937135
1443.7746740250223,0.19656133856915511
1446.2436228822844,0.19616038701696578
1448.7419655262602,0.1955695227239466
1451.2095012321843,0.19481079785009653
1453.7064141053015,0.1938748349422693
1456.1725378728079,0.1927941916964621
1458.6680222020732,0.19155355956895725
1461.1327352426997,0.19019441039395438
1463.6267922537227,0.1886959103863307
1466.090095777603,0.18710666676051668
1468.582726694589,0.18540084708704235
1471.044621910496,0.18363235378325166
1473.5358279562424,0.18177099794120966
1475.996316071556,0.17987418478083117
1478.4860984674815,0.1779081098522648
1480.9451806882025,0.17593202008639164
1483.4335406543069,0.17390930858112996
1485.8912181850574,0.17189958899577223
1488.3781569399653,0.16986430447652842
1490.8344309839958,0.16786217432600517
1493.2900079848114,0.1658776077603393
1495.7748215041174,0.16389521228643533
1498.2289968168734,0.16197048701183708
1500.7123921617567,0.16006368241726
1503.1651669862695,0.15822718647798384
1505.647145370498,0.1564221212390223
1508.0985209052233,0.15469720292715472
1510.579083541168,0.15301508274617126
1513.02906098319,0.1514203935094495
1515.5082090818432,0.14987787995616858
1517.9567896268818,0.14842780236281233
1520.4046764008053,0.14705374358618545
1522.8817092402714,0.1457425661396159
1525.3282009046197,0.1445276533492382
1527.803822224585,0.14338079975996085
1530.2489199716838,0.1423306807697977
1532.7231309783128,0.14135239140838823
1535.16683599912,0.14046987387405152
1537.6098493197496,0.13967088867841448
1540.0819513813403,0.138946977563875
1542.5235737559778,0.1383150454469058
1544.994268510025,0.13775883901038885
