Raman Shift (cm-1),Fitted Intensity
159.26151312198635,0.009879376878112722
162.17892251266312,0.010017225379685229
165.06070388440276,0.010157055757639309
167.97629817665074,0.010302385221541054
170.89098012548493,0.01045170864785699
173.77006778237046,0.010603339712638313
176.68293717714914,0.01076110564677531
179.59489550712533,0.010923389716667727
182.50594319967058,0.011090387591909109
185.38144153980102,0.011260229890228922
188.29068006676243,0.01143722622584333
191.19900923170644,0.01161959225464108
194.07182265961455,0.01180530242070104
196.97834519226308,0.011999090545946452
199.8839596359394,0.012199030824311691
202.75409191031576,0.012402922545855549
205.65790225025557,0.012615990041612379
208.5608057718964,0.012836150661694936
211.42826064439942,0.013061006730197364
214.32936258615155,0.013296354039759118
217.22955897789507,0.01353993604106532
220.09434019320543,0.0137891330315996
222.9927375242005,0.014050412167740202
225.89023057112718,0.014321324317321808
228.75234186693342,0.014598999011201921
231.64803836756255,0.014890699512078803
234.54283184768065,0.015193764041393124
237.4022769547155,0.01550503853908387
240.2952763983085,0.015832740138747026
243.18737408261222,0.016173973563014244
246.04415672466348,0.01652526393141801
248.93446287752522,0.016895984525659286
251.82386852998388,0.017282986054310893
254.67799242389083,0.017682430995552764
257.565609045334,0.01810511180335141
260.41796602711474,0.018542217151028485
263.3037952786035,0.0190056693935035
266.18872612093764,0.01949185771444333
269.0384305290536,0.019996234848747817
271.9215764941182,0.020532780926504325
274.8038253026716,0.021097593739236184
277.65088083558294,0.021685626320045545
280.5313472549242,0.022313476894313983
283.37664243438485,0.022968829778002256
286.2553281173605,0.023670425829506483
289.13311872473423,0.024413871310803067
291.97577117291803,0.025193115621372587
294.85178352428557,0.026030890678671207
297.6926797004962,0.026911536235232052
300.5669154435891,0.027861063575069733
303.44025818556474,0.0288745038801821
306.2785177554506,0.029944347785587716
309.150086361853,0.031102663785121627
311.98659372863403,0.032328600900275506
314.85638984211255,0.033659094023276034
317.69114662786524,0.03507028890721832
320.55917188903913,0.03660467726075399
323.42630704161274,0.03825493166248887
326.25843576130865,0.04000864933754309
329.1238025236089,0.041917839789801244
331.9541847135806,0.043946842149717086
334.8177847211591,0.046154533114734594
337.6464219965019,0.04849799647915572
340.5082568828984,0.051043064040605435
343.3351508567066,0.05373762217609864
346.1952222534492,0.05665413036819335
349.0203745368344,0.05972910918056424
351.8786840734356,0.06304082320461114
354.7361080202609,0.06655526967272507
357.55864557949826,0.07022609026480173
360.4143101115624,0.07413761361467959
363.23511000427607,0.07818912094698834
366.08901674608205,0.08246660705139423
368.90808057645336,0.08685266556560545
371.7602311504961,0.09143283811023477
374.57756052071636,0.09607395143383345
377.42795654749716,0.10085908274527483
380.2435530577968,0.1056420897031438
383.0921961558306,0.11050196678917586
385.90606140446107,0.11528444388644535
388.7529531902692,0.1200634310207337
391.56508877352826,0.12468324555268386
394.41023086164205,0.12921242326910315
397.2206383738594,0.1335018983583363
400.0640323768239,0.13761518216915286
402.8727134103756,0.14141825313218293
405.71436093876036,0.14497035402129357
408.5213170840616,0.1481601935868534
411.36121974646085,0.15104357028375928
414.16645259197685,0.15353771683536632
417.00461199500205,0.15569553218362056
419.8081231272481,0.1574657534074183
422.6107791472823,0.15888340882828378
425.446331879084,0.15997336697452239
428.2472685572284,0.16072992028009817
431.0810820327788,0.16119744168446914
433.88030095069917,0.16139508146011775
436.71237676973396,0.16136191788886187
439.5098795071426,0.16113486223262696
442.3402192674366,0.1607463389742302
445.1360074021177,0.1602429117493915
447.930943955329,0.15965669385601197
450.75868780728706,0.15901370271269302
453.5519121161087,0.1583604993930817
456.3779238904244,0.15770941191541504
459.1694375278166,0.15709940927141838
461.99371881542174,0.15653505950821134
464.7835233524238,0.15604408588148402
467.5724790401364,0.15562893677791337
470.39417274803054,0.15529114742657243
473.18142168360646,0.15503963693670372
476.00138886887726,0.1548653393084747
478.7869326185464,0.15476610439257577
481.60517486533354,0.15473031457649136
484.3890149934232,0.1547475701556502
487.17200899273666,0.15480442628271449
489.9876719528438,0.1548884636090568
492.76896466880135,0.1549838071580312
495.5829066375736,0.15507911238304703
498.3624996297294,0.15515980140491448
501.14124842855017,0.15521663586244253
503.9526170105346,0.15524175503160284
506.7296684166504,0.15522977508197844
509.505876786945,0.15518044585921037
512.3146755106209,0.15509662153716958
515.0891888150436,0.1549900450372307
517.8962728359329,0.15487459914182586
520.6690926264382,0.15477617338037716
523.4410713071484,0.15472317309193973
526.2455913408958,0.1547522699268279
529.0158788274384,0.154902483403952
531.785326356061,0.1552124082720711
534.5872859139781,0.15572143713339592
537.3550445639485,0.15643464680971758
540.1219644057746,0.15734927479838723
542.9213669927594,0.15843752605007455
545.686600267225,0.15959023960633031
548.4509958812232,0.16069404567599108
551.2478449957853,0.16159433366273987
554.0105563494981,0.16207964101599787
556.805701690384,0.1619643086653235
559.5667303225964,0.1610781853641154
562.3269232040038,0.15929920510153422
565.0862807140293,0.15656910541361005
567.8780333537688,0.1528571610244663
570.6357112050464,0.14834770591961025
573.3925548263542,0.1431603004092799
576.1817644509756,0.1374241454655413
578.9369307080196,0.13149313217759026
581.6912638744288,0.1255074388277521
584.4779339570123,0.1195753021378118
587.2305920494691,0.11397632163784123
589.9824181885451,0.10873140007617166
592.7665521958479,0.1038360963399715
595.5167055471175,0.09942418634518504
598.2660280801974,0.0954269564256724
601.0145201715131,0.09182081204007739
603.7952814999189,0.08853717693516137
606.5421038421155,0.08562024190948757
609.2880968749887,0.08299683726571165
612.0663301881068,0.0806118461498221
614.8106557483188,0.07849824848155453
617.554153129593,0.07660728428274458
620.2968227067649,0.07492453271981224
623.0716940541533,0.07342279391360436
625.8126991844802,0.07213078292372312
628.552877638358,0.07102564549392178
631.2922297897167,0.07010653978392402
634.0637452701958,0.06936793661028695
636.8014359932095,0.06883275461857553
639.5383015386324,0.06849993035336958
642.3073015987065,0.0683825570305552
645.0425079771339,0.06850202026094541
647.7768903008473,0.06888063924580562
650.5104489421938,0.06955178555803093
653.2431842732913,0.07055917603042414
656.0080062575216,0.07197848672844898
658.7390861754284,0.0738469160605315
661.4693439025905,0.07626348851449974
664.1987798102273,0.07932441993123832
666.9602641357596,0.08318104019639609
669.6880476268889,0.0878336037049498
672.4150104152941,0.09338420211146653
675.141152871307,0.09983683065386592
677.8993055782594,0.10720208378989832
680.6237986072192,0.11511209810676039
683.3474724178923,0.12334163124596728
686.0703273797008,0.1314803861290476
688.7923638618704,0.13905835893900537
691.5463630106569,0.14568325954352804
694.2667537902307,0.1508163041371001
696.9863272009134,0.15432552932005908
699.705083611032,0.1561992810675787
702.4230233886883,0.15664160083147383
705.1728783546314,0.15602935447017535
707.8891761429404,0.15489231567518633
710.6046584062024,0.15378125483318805
713.3193255116239,0.15321699265588748
716.033177826208,0.15363359155019862
718.7462157167283,0.15534970264523013
721.491111983778,0.15861331423909156
724.2025123243511,0.16344222852626827
726.9130993442814,0.1698791170480321
729.6228734094693,0.17788045129894056
732.3318348855792,0.18736552543916976
735.0399841380749,0.19822910146481632
737.7799351068679,0.2105005782077835
740.4864512328204,0.22374528481642986
743.1921562345997,0.23794203297526223
745.8970504767931,0.2529098139473418
748.6011343237551,0.2684453277066267
751.3044081396256,0.28432377914745477
754.0394271625555,0.30049459057045796
756.741072259374,0.3163165480860685
759.4419084205874,0.33172820264812575
762.1419360094733,0.34649028716576313
764.8411553890837,0.3603977897061977
767.539566922238,0.3733060778200998
770.2371709715626,0.38516693297071086
772.9339678994475,0.39608192166574524
775.6624349602753,0.4065123016159674
778.3576090181923,0.4169528533261366
781.0519770449282,0.42897959996132773
783.7455394020071,0.4454063874488377
786.4382964507422,0.47168385970700366
789.1302485522319,0.517593171780138
791.8213960673565,0.596500582297822
794.5117393567816,0.7148222217662703
797.2012787809545,0.8497158000622562
799.922404211542,0.9408328608059772
802.6103273114531,0.9261911142287838
805.2974476305062,0.8086387504485696
807.9837655282827,0.6487771969575479
810.6692813641639,0.5075616406971428
813.3539954973021,0.40777901833791086
816.037908286642,0.34332174100763824
818.7210200909067,0.3013111538101472
821.4033312686151,0.2724005173487251
824.0848421780756,0.2514571612547191
826.7655531773598,0.23587843610511447
829.4777478409233,0.22421487841253565
832.1568504666102,0.2160286484089134
834.8351542594137,0.210752826423343
837.5126595765614,0.20811295674162333
840.1893667750774,0.20786267326938418
842.8652762117599,0.20971448883711086
845.5403882432074,0.21329657887269074
848.2147032257963,0.2181379784111065
850.8882215157028,0.22368651285496424
853.5609434688704,0.22935919836475224
856.2328694410462,0.2346162300479598
858.9039997877626,0.23904091765133445
861.5743348643446,0.24240346368011884
864.2438750258916,0.24468931882187853
866.9126206273068,0.24608284761068844
869.5805720232747,0.24691063999366153
872.2477295682729,0.24756066633963833
874.9140936165568,0.24839909581368144
877.5796645221853,0.24970445708010905
880.2444426389957,0.2516307957474813
882.9084283206321,0.25420151690414106
885.5716219205024,0.2573275693208052
888.2340237918252,0.2608396931687331
890.8956342876045,0.2645246296107168
893.5564537606224,0.26815800488918273
896.2164825634645,0.2715301883299323
898.8757210485091,0.2744643901998954
901.566194253428,0.2768526262491969
904.2238436478765,0.278555360674819
906.88070378462,0.2795761628335677
909.5047788508018,0.27993869976864416
912.1600710251078,0.2797257512354973
914.8145749914547,0.279049682749953
917.4682911007549,0.27807079928569073
920.1212197037094,0.2769799961983578
922.7733611508156,0.2759870767168654
925.4247157923564,0.2753064751366985
928.0752839784072,0.27514072654274263
930.725066058847,0.2756624663709852
933.3740623833291,0.2769962830320616
936.0222733013143,0.27920232253140664
938.669699162052,0.2822640612763291
941.3163403145809,0.2860830144736391
943.9621971077358,0.29048325374936595
946.607269890148,0.29522848717926525
949.2515590102339,0.3000543294276606
951.8950648162136,0.30471886902093975
954.5377876560888,0.3090771288362157
957.1797278776648,0.31319281263806237
959.8208858285398,0.31752240695741585
962.4612618561077,0.32326760281167605
965.1008563075484,0.33317627498353747
967.7396695298376,0.35366096128991403
970.3777018697583,0.4005620411069335
973.0149536738754,0.5091523400034572
975.65142528855,0.7185326955028597
978.2871170599428,0.9642950151880639
980.8902880408277,1.0283811911108274
983.5244305486303,0.8258185248896902
986.1577942462391,0.5483433510382957
988.7903794789963,0.36008479415843536
991.4221865920408,0.2610080321889221
994.0532159303111,0.20758939391984663
996.6834678385349,0.17471703427880775
999.3129426612431,0.1520339732591221
1001.9416407427561,0.1351668864864956
1004.5695624271975,0.12202266037574531
1007.1967080584836,0.11146692537303866
1009.8230779803271,0.1028172579091522
1012.4170434801454,0.09570641718688423
1015.041872349022,0.08965189118433403
1017.665926534246,0.08451964633153497
1020.2892063787294,0.08013667633100645
1022.9117122251773,0.07636915505268456
1025.5334444160871,0.07311191652593409
1028.15440329376,0.07028137328059747
1030.7745892002931,0.06781050276230928
1033.3940024775802,0.06564516478346065
1035.9810981708106,0.06376285932307406
1038.598976513018,0.062081955432220795
1041.2160832463414,0.06059714640004073
1043.832418711885,0.05928376404219181
1046.447983250535,0.058121233456636605
1049.0627772029802,0.05709229048939524
1051.676800909714,0.05618236527263583
1054.290054711022,0.05537909432974877
1056.8710678120515,0.054679917493201745
1059.48279208834,0.05405882701433781
1062.093747474777,0.05351711644122792
1064.7039343108554,0.053048051437962304
1067.313352935871,0.05264579148813228
1069.9220036889128,0.05230525512504815
1072.4984711957586,0.05202509648054217
1075.105596462614,0.05179464139206523
1077.7119548694973,0.05161424135239802
1080.317546754708,0.05148091143946629
1082.9223724563308,0.05139203029687073
1085.5264323122756,0.0513452949634658
1088.1297266602414,0.051338682647960314
1090.700904617097,0.05136981401343459
1093.3026781742628,0.051437907668173855
1095.90368723129,0.051541450794502876
1098.5039321250988,0.05167925879545391
1101.1034131923952,0.05185030594378723
1103.6708254619662,0.0520510702093068
1106.2687890782108,0.05228570406912981
1108.8659898728438,0.052551319817201236
1111.4624281817887,0.052847394907729446
1114.0581043407765,0.05317350857377589
1116.6217591897112,0.05352487173667754
1119.2159212276165,0.05390981823771791
1121.8093221175222,0.05432408574179941
1124.4019621943662,0.05476759684332831
1126.9938417929043,0.05524034867186285
1129.5537474636767,0.05573618574516456
1132.1441162613737,0.05626733667586257
1134.7337255797866,0.05682813358752104
1137.322575752878,0.05741884294001348
1139.9106671144218,0.05803979402323142
1142.466831825419,0.05868334340089348
1145.0534156966605,0.05936563444331567
1147.6392417524658,0.06007951599523918
1150.2243103258224,0.06082555994524271
1152.7774899721844,0.061594817031293964
1155.3610536951164,0.06240673509772123
1157.9438609293902,0.06325288497865653
1160.5259120072114,0.06413408170086973
1163.1072072606003,0.0650512031071167
1165.6566606759006,0.06599347385808196
1168.2364543720396,0.06698487279489714
1170.8154932346333,0.06801520591988022
1173.3937775949307,0.06908561483016788
1175.940257690534,0.07018366680169512
1178.5170431196166,0.07133741454399144
1181.0930750349762,0.0725350761659429
1183.6683537670833,0.07377808621499386
1186.2118657414467,0.07505213262714343
1188.7856481622657,0.0763898685383872
1191.3586783861065,0.0777777206619455
1193.9309567426717,0.07921745440525069
1196.471505782134,0.08069260377942525
1199.0422904412299,0.08224107539060008
1201.6123242170252,0.08384724846426839
1204.1506566845674,0.08549282494056097
1206.7191987172919,0.0872201575709881
1209.2869908489847,0.08901188469870835
1211.8540334080099,0.09087045327077307
1214.389411983815,0.09277476582031413
1216.9549654029506,0.09477390534311798
1219.5197702293917,0.09684784464012142
1222.0529389950316,0.09897307091034398
1224.61625662804,0.10120438432918262
1227.1788266466283,0.10351944701635046
1229.7406493778217,0.10592147426330317
1232.2708732581305,0.10838320955793226
1234.8312113884967,0.1109680852166505
1237.3908032074723,0.11365015144232447
1239.9188240118929,0.11639887580720776
1242.4769331685857,0.11928495334723337
1245.0342969881858,0.12227923459870804
1247.560117592806,0.12534742212285382
1250.116000685306,0.12856815441826433
1252.6711394133126,0.13190855113807196
1255.194762689218,0.13532996698787822
1257.7484226219312,0.1389196040733869
1260.3013391610693,0.1426401950599111
1262.822767974354,0.1464480543765333
1265.3742076466478,0.15043941850917367
1267.924904894593,0.15457182438360295
1270.4441421063602,0.15879573256069826
1272.993364412563,0.16321660603141155
1275.5418452619597,0.16778580119253306
1278.0588937283464,0.17244699270757996
1280.6059015577484,0.17731460850168318
1283.1521688962057,0.1823326600803254
1285.6670314683906,0.18743702270668539
1288.2118277052796,0.19275015897782843
1290.755884415401,0.1982074384362487
1293.2685639396113,0.2037359480729503
1295.811151463251,0.20946436023947493
1298.3530004226377,0.21531812193097277
1300.8634997401532,0.22121479573674588
1303.403881424827,0.22728637386466288
1305.9129317732186,0.23337274176654713
1308.4518474532706,0.23960596542036094
1310.9900261682633,0.2458933000564434
1313.4969010306886,0.2521368982525491
1316.0336156473168,0.2584650919215688
1318.5695942569437,0.2647751353831378
1321.074296461582,0.27096274255221553
1323.6088128757874,0.27714761687173584
1326.112071126503,0.2831480314316849
1328.6451266095319,0.28907544795880136
1331.1774476773753,0.29481947270873726
1333.6785379692556,0.30027784825572773
1336.209400003383,0.30554684731807097
1338.7090494631484,0.31046386161091066
1341.2384537241596,0.3151139754168974
1343.76712515721,0.3194023712806621
1346.2646113435585,0.32325451761620105
1348.7918268954818,0.32673833731010404
1351.2878753625337,0.32974857127331114
1353.8136362903097,0.33234193784248023
1356.338665972784,0.33446763527127804
1358.832555838333,0.33610297546916
1361.3561327831994,0.33728814212199437
1363.8485880333137,0.3380005696406715
1366.3707134939323,0.3382692914445673
1368.8921092873425,0.3380998276164502
1371.3824105944368,0.33752333420768543
1373.9023567847216,0.3365512312380413
1376.3912265713043,0.3352352047481867
1378.9097244082113,0.33357432750792115
1381.3971639082774,0.33164090639314703
1383.914214640121,0.3294214431247406
1386.4002250862322,0.3270026342059215
1388.9158299598967,0.3243586569382715
1391.4307079939972,0.32155000551255947
1393.9145728441363,0.31864342706128734
1396.4280068914595,0.3155962578108077
1398.9104457665926,0.3125073731408825
1401.422437070447,0.3093247471207878
1403.9034511981918,0.30614540780102695
1406.4140010004412,0.30290983182658426
1408.893591607004,0.29971118143720854
1411.4027011481012,0.2964844427630931
1413.8808694582804,0.29331794286362073
1416.388539977259,0.290143168265528
1418.8954870924463,0.28700590017063415
1421.3715199489052,0.28394863379783314
1423.877029901585,0.2809010109269253
1426.3516435212223,0.27793967482400656
1428.8557175468777,0.2749949682574126
1431.3289131495767,0.2721399385322669
1433.8315524822574,0.2693068475922992
1436.3033312865118,0.2665657903291807
1438.8045371588632,0.2638518862712253
1441.2749003817698,0.26123270944173393
1443.7746740250223,0.25864692028736713
1446.2436228822844,0.256159707474811
1448.7419655262602,0.2537137450922673
1451.2095012321843,0.2513716586999405
1453.7064141053015,0.2490804552458722
1456.1725378728079,0.24689974441164345
1458.6680222020732,0.2447810922784766
1461.1327352426997,0.2427804397329631
1463.6267922537227,0.2408540996699666
1466.090095777603,0.2390535811215032
1468.582726694589,0.23734013326306602
1471.044621910496,0.23576004610978887
1473.5358279562424,0.23427971876419068
1475.996316071556,0.23293947997781125
1478.4860984674815,0.23171112122431023
1480.9451806882025,0.23062835878158608
1483.4335406543069,0.22966863810082216
1485.8912181850574,0.22885852635366735
1488.3781569399653,0.22818138499547674
1490.8344309839958,0.22765621532849195
1493.2900079848114,0.22727626365492645
1495.7748215041174,0.22704147418269321
1498.2289968168734,0.22695898597693878
1500.7123921617567,0.22702787523882748
1503.1651669862695,0.227247138427409
1505.647145370498,0.22762236539817338
1508.0985209052233,0.22814432869371182
1510.579083541168,0.22882513156004206
1513.02906098319,0.2296473096045291
1515.5082090818432,0.23062937636918376
1517.9567896268818,0.2317456806479083
1520.4046764008053,0.2330047067332433
1522.8817092402714,0.2344214002417325
1525.3282009046197,0.23595808988324354
1527.803822224585,0.23764808243606358
1530.2489199716838,0.23944594353429624
1532.7231309783128,0.24139008455875785
1535.16683599912,0.24342763061779318
1537.6098493197496,0.24557459840345433
1540.0819513813403,0.24785159898878278
1542.5235737559778,0.2501954915280223
1544.994268510025,0.25265420394566507
1547.4345011262485,0.25515855070121174
1549.8740435159852,0.2577269569507097
