Raman Shift (cm-1),Fitted Intensity
159.26151312198635,0.001480902626779732
162.17892251266312,0.00150307346017589
165.06070388440276,0.0015255436436541444
167.97629817665074,0.0015488757200784746
170.89098012548493,0.0015728247525472827
173.77006778237046,0.0015971175814530054
176.68293717714914,0.001622363924553814
179.59489550712533,0.001648300777829816
182.50594319967058,0.0016749552788933636
185.38144153980102,0.0017020252612413584
188.29068006676243,0.0017301927321797445
191.19900923170644,0.001759167636353376
194.07182265961455,0.0017886232256431771
196.97834519226308,0.0018193039952763028
199.8839596359394,0.001850897108299625
202.75409191031576,0.001883048408212483
205.65790225025557,0.0019165734302009686
208.5608057718964,0.001951134096431202
211.42826064439942,0.0019863456043138663
214.32936258615155,0.0020231046807889985
217.22955897789507,0.0020610452342205436
220.09434019320543,0.002099748098607654
222.9927375242005,0.0021402033331351595
225.89023057112718,0.002182013709128753
228.75234186693342,0.002224721420215272
231.64803836756255,0.002269424494359571
234.54283184768065,0.0023156910567968736
237.4022769547155,0.0023630197317935442
240.2952763983085,0.002412634317884884
243.18737408261222,0.002464064369497763
246.04415672466348,0.0025167592551854187
248.93446287752522,0.002572090403816192
251.82386852998388,0.0026295444417179766
254.67799242389083,0.002688514919668039
257.565609045334,0.0027505480183220733
260.41796602711474,0.0028142991116983534
263.3037952786035,0.002881448986733731
266.18872612093764,0.00295140197339166
269.0384305290536,0.003023441305296328
271.9215764941182,0.0030994840715669577
274.8038253026716,0.003178878120055616
277.65088083558294,0.0032608280355289738
280.5313472549242,0.0033475380858475987
283.37664243438485,0.003437188785837828
286.2553281173605,0.003532210761773812
289.13311872473423,0.003631845350257235
291.97577117291803,0.0037351405746583826
294.85178352428557,0.0038449342276822853
297.6926797004962,0.003958986512561827
300.5669154435891,0.004080460889490195
303.44025818556474,0.004208475883271665
306.2785177554506,0.0043418812247469135
309.150086361853,0.004484433997795573
311.98659372863403,0.004633324051194993
314.85638984211255,0.00479278806341908
317.69114662786524,0.004959727564300055
320.55917188903913,0.005138940432258017
323.42630704161274,0.005329328244067693
326.25843576130865,0.005529337209461328
329.1238025236089,0.0057447905879849746
331.9541847135806,0.005971630629373347
334.8177847211591,0.006216502142475572
337.6464219965019,0.0064748257940591
340.5082568828984,0.006754191134152308
343.3351508567066,0.007049381944074294
346.1952222534492,0.0073690607727843836
349.0203745368344,0.007707225704965802
351.8786840734356,0.008073738080011843
354.7361080202609,0.00846645769867228
357.55864557949826,0.008882048009012478
360.4143101115624,0.00933237690402519
363.23511000427607,0.00980854695694405
366.08901674608205,0.010323854486732622
368.90808057645336,0.010867755550140702
371.7602311504961,0.011454996894884937
374.57756052071636,0.012073053517992642
377.42795654749716,0.012738086075414174
380.2435530577968,0.013435244277331383
383.0921961558306,0.014182001422105224
385.90606140446107,0.014960864883456606
388.7529531902692,0.015790457200229167
391.56508877352826,0.016650403995080765
394.41023086164205,0.017560265699358826
397.2206383738594,0.01849668500248815
400.0640323768239,0.019479928036220638
402.8727134103756,0.02048375501895528
405.71436093876036,0.021528924022442945
408.5213170840616,0.022586670138586302
411.36121974646085,0.023678096468467084
414.16645259197685,0.024772560884069098
417.00461199500205,0.025891484025191144
419.8081231272481,0.027003283576592735
422.6107791472823,0.02811643915778394
425.446331879084,0.029239809849833463
428.2472685572284,0.03034265755541734
431.0810820327788,0.03144828694952888
433.88030095069917,0.03252818009080229
436.71237676973396,0.03360743232622534
439.5098795071426,0.034660970750772874
442.3402192674366,0.03571661954861449
445.1360074021177,0.03675363387765738
447.930943955329,0.037791128645217095
450.75868780728706,0.03885056008960311
453.5519121161087,0.039917880296543064
456.3779238904244,0.04103250564986275
459.1694375278166,0.04218353316667829
461.99371881542174,0.043416488755041054
464.7835233524238,0.04472096409278571
467.5724790401364,0.04613078528673046
470.39417274803054,0.04768492747699046
473.18142168360646,0.04936532318173267
476.00138886887726,0.05122963468353767
478.7869326185464,0.05324706182297296
481.60517486533354,0.05547526524579721
484.3890149934232,0.05786401394772224
487.17200899273666,0.060434158578838826
489.9876719528438,0.06320660376809181
492.76896466880135,0.06609265234928369
495.5829066375736,0.06912859200024471
498.3624996297294,0.0721993449632676
501.14124842855017,0.07528867578485687
503.9526170105346,0.07837285352837721
506.7296684166504,0.0813114723775952
509.505876786945,0.08407139941898999
512.3146755106209,0.08660988169310241
515.0891888150436,0.08879697273640443
517.8962728359329,0.09062079662275248
520.6690926264382,0.09198385599944145
523.4410713071484,0.09286939289966117
526.2455913408958,0.09325335683495918
529.0158788274384,0.0931186451433974
531.785326356061,0.09248419594844065
534.5872859139781,0.091365243669838
537.3550445639485,0.08984033714485577
540.1219644057746,0.08797016810333075
542.9213669927594,0.08581837279869735
545.686600267225,0.08354587187933425
548.4509958812232,0.08125376747157824
551.2478449957853,0.07905690197115095
554.0105563494981,0.07715865913189762
556.805701690384,0.07566865886290151
559.5667303225964,0.07476353530197713
562.3269232040038,0.07453092508505989
565.0862807140293,0.07502219902109906
567.8780333537688,0.07622228437634732
570.6357112050464,0.07796015064600571
573.3925548263542,0.07998832983912418
576.1817644509756,0.0819688169960481
578.9369307080196,0.08343033163187898
581.6912638744288,0.0839827579724941
584.4779339570123,0.08327448143935895
587.2305920494691,0.08113294584063982
589.9824181885451,0.07755577736695106
592.7665521958479,0.07265945469762553
595.5167055471175,0.06688881069122196
598.2660280801974,0.06059486742853812
601.0145201715131,0.054183766639895437
603.7952814999189,0.04793266497712403
606.5421038421155,0.04224694095144895
609.2880968749887,0.03719821949535819
612.0663301881068,0.03279176894120791
614.8106557483188,0.029114373934948878
617.554153129593,0.02604682360938726
620.2968227067649,0.02350577387982441
623.0716940541533,0.021381217063244383
625.8126991844802,0.019642615329158057
628.552877638358,0.0181934448367857
631.2922297897167,0.016977527577452523
634.0637452701958,0.01593892993163203
636.8014359932095,0.015067333483190858
639.5383015386324,0.014322508166076216
642.3073015987065,0.013676613225829273
645.0425079771339,0.01312883479066568
647.7768903008473,0.012658435204300789
650.5104489421938,0.012255706139010988
653.2431842732913,0.01191307320481554
656.0080062575216,0.011621490364560361
658.7390861754284,0.01138335245814663
661.4693439025905,0.011191518691994229
664.1987798102273,0.011043617147136163
666.9602641357596,0.010937136462322701
669.6880476268889,0.010873928657893895
672.4150104152941,0.010852592248149356
675.141152871307,0.01087404994331667
677.8993055782594,0.010941150733376913
680.6237986072192,0.011055031593019307
683.3474724178923,0.01121997888272938
686.0703273797008,0.011440954165121366
688.7923638618704,0.011724309351597541
691.5463630106569,0.01208273506056138
694.2667537902307,0.01251761883232887
696.9863272009134,0.01304470226000802
699.705083611032,0.013678168161702607
702.4230233886883,0.014434541182776697
705.1728783546314,0.015344337754648954
707.8891761429404,0.01640667634387278
710.6046584062024,0.017653058286014617
713.3193255116239,0.019104685242295458
716.033177826208,0.020780462854403027
718.7462157167283,0.022694480424984044
721.491111983778,0.02488050864443214
724.2025123243511,0.027281634562614954
726.9130993442814,0.02990346611816267
729.6228734094693,0.03271078262814643
732.3318348855792,0.03565126545732972
735.0399841380749,0.0386567207321268
737.7799351068679,0.04168242990099055
740.4864512328204,0.04456968226616403
743.1921562345997,0.04727299901765509
745.8970504767931,0.049726815843400746
748.6011343237551,0.051896510328053355
751.3044081396256,0.053796414223590334
754.0394271625555,0.05553414814041778
756.741072259374,0.05727004572045548
759.4419084205874,0.05941385650895573
762.1419360094733,0.0627203563388556
764.8411553890837,0.06881014634974628
767.539566922238,0.0818203870917926
770.2371709715626,0.11391204118039654
772.9339678994475,0.1915172257926074
775.6624349602753,0.3070094313279731
778.3576090181923,0.33258696314928293
781.0519770449282,0.2371042895770099
783.7455394020071,0.15465432622177566
786.4382964507422,0.1336650287652116
789.1302485522319,0.16174925147049132
791.8213960673565,0.2611710590978138
794.5117393567816,0.508425114066159
797.2012787809545,0.8844984880236813
799.922404211542,1.0116134505391636
802.6103273114531,0.702614139433237
805.2974476305062,0.35759831066054226
807.9837655282827,0.18232319146616535
810.6692813641639,0.10917843151414024
813.3539954973021,0.07518306759666063
816.037908286642,0.05690891534560448
818.7210200909067,0.046073851869335034
821.4033312686151,0.03928115193984314
824.0848421780756,0.03493824160242452
826.7655531773598,0.03222614784975028
829.4777478409233,0.03068524995120812
832.1568504666102,0.030096319636999633
834.8351542594137,0.03028492988854286
837.5126595765614,0.031153390628785717
840.1893667750774,0.03262256257964012
842.8652762117599,0.03460766708570072
845.5403882432074,0.037000796478320296
848.2147032257963,0.039660592081089484
850.8882215157028,0.04241073660228601
853.5609434688704,0.04504859724534105
856.2328694410462,0.04736378574486947
858.9039997877626,0.04916407618688787
861.5743348643446,0.05030385888189517
864.2438750258916,0.05070902114341967
866.9126206273068,0.05039247011305286
869.5805720232747,0.049456482101230624
872.2477295682729,0.048081026384371166
874.9140936165568,0.0465000973581534
877.5796645221853,0.04496992948564604
880.2444426389957,0.043733431878231824
882.9084283206321,0.04298478290646905
885.5716219205024,0.04283792017097708
888.2340237918252,0.04330342396450185
890.8956342876045,0.04427967221612344
893.5564537606224,0.045564451687435475
896.2164825634645,0.0468903411705844
898.8757210485091,0.04798040689334215
901.566194253428,0.04861634073294789
904.2238436478765,0.04866856782319392
906.88070378462,0.04817059715102568
909.5047788508018,0.047283578681829135
912.1600710251078,0.04621729832877214
914.8145749914547,0.04524303335777684
917.4682911007549,0.044598271231347984
920.1212197037094,0.04445846305002356
922.7733611508156,0.044922564671100236
925.4247157923564,0.0460179358125892
928.0752839784072,0.04771657844031791
930.725066058847,0.049954492337286306
933.3740623833291,0.052648712213507705
936.0222733013143,0.05571010980319959
938.669699162052,0.05905272140287034
941.3163403145809,0.06260173367888544
943.9621971077358,0.06630269505953366
946.607269890148,0.07013474673749978
949.2515590102339,0.07413154632148188
951.8950648162136,0.07841629290696865
954.5377876560888,0.08326436608055715
957.1797278776648,0.08922525059136352
959.8208858285398,0.0973845369090663
962.4612618561077,0.10998735784412937
965.1008563075484,0.1320099375165571
967.7396695298376,0.17458422410612634
970.3777018697583,0.2575276039576954
973.0149536738754,0.39276292949020425
975.65142528855,0.5345033322237471
978.2871170599428,0.576681605945066
980.8902880408277,0.4791274072058713
983.5244305486303,0.32306279100940327
986.1577942462391,0.20084240270478512
988.7903794789963,0.13047855750256454
991.4221865920408,0.09286656184868816
994.0532159303111,0.0713202840219695
996.6834678385349,0.05761118812141127
999.3129426612431,0.04809939758677001
1001.9416407427561,0.041076754679080674
1004.5695624271975,0.03566015524397951
1007.1967080584836,0.03135059864496216
1009.8230779803271,0.027844053911214577
1012.4170434801454,0.0249750009143703
1015.041872349022,0.022539244716358937
1017.665926534246,0.02047778475798252
1020.2892063787294,0.018718371969627827
1022.9117122251773,0.017205839339808283
1025.5334444160871,0.015897144820491014
1028.15440329376,0.014758153764224098
1030.7745892002931,0.013761458392439523
1033.3940024775802,0.012884840678524724
1035.9810981708106,0.012118939912647734
1038.598976513018,0.011430287359547644
1041.2160832463414,0.010816440092346486
1043.832418711885,0.01026712140777193
1046.447983250535,0.009773747335940483
1049.0627772029802,0.009329112733088986
1051.676800909714,0.00892714069893999
1054.290054711022,0.008562681609141276
1056.8710678120515,0.008235161417253308
1059.48279208834,0.007932876582391356
1062.093747474777,0.007656786217124064
1064.7039343108554,0.0074041068581996395
1067.313352935871,0.007172427505279672
1069.9220036889128,0.006959651568512696
1072.4984711957586,0.006766211810710228
1075.105596462614,0.006585802012714038
1077.7119548694973,0.006419469607492113
1080.317546754708,0.006265970459153491
1082.9223724563308,0.0061242043289025504
1085.5264323122756,0.0059931954770332824
1088.1297266602414,0.005872076275891881
1090.700904617097,0.005761371292083714
1093.3026781742628,0.005657695851836446
1095.90368723129,0.0055618339412075515
1098.5039321250988,0.005473229719408481
1101.1034131923952,0.005391383604236183
1103.6708254619662,0.005316720027086993
1106.2687890782108,0.00524701624279088
1108.8659898728438,0.0051828534281776
1111.4624281817887,0.005123900341186451
1114.0581043407765,0.005069857351283391
1116.6217591897112,0.005021021850948075
1119.2159212276165,0.0049759594304202535
1121.8093221175222,0.0049350703453447
1124.4019621943662,0.00489815286636242
1126.9938417929043,0.00486502437013064
1129.5537474636767,0.004835854178737912
1132.1441162613737,0.004809782990384848
1134.7337255797866,0.004787053305756116
1137.322575752878,0.004767543888184964
1139.9106671144218,0.004751146008414793
1142.466831825419,0.004737906211612118
1145.0534156966605,0.004727416103847406
1147.6392417524658,0.004719778886550415
1150.2243103258224,0.004714927886500209
1152.7774899721844,0.004712815014300786
1155.3610536951164,0.004713340162743256
1157.9438609293902,0.004716504552324098
1160.5259120072114,0.0047222752281608806
1163.1072072606003,0.004730626905088472
1165.6566606759006,0.004741395057873101
1168.2364543720396,0.00475483189571063
1170.8154932346333,0.004770818163975196
1173.3937775949307,0.004789357696544006
1175.940257690534,0.004810191923076627
1178.5170431196166,0.004833847023086797
1181.0930750349762,0.004860109896551739
1183.6683537670833,0.004889013525894558
1186.2118657414467,0.004920201891453995
1188.7856481622657,0.004954483751350609
1191.3586783861065,0.004991551746169975
1193.9309567426717,0.005031471231864592
1196.471505782134,0.005073782661043914
1199.0422904412299,0.005119601055316768
1201.6123242170252,0.005168522121788251
1204.1506566845674,0.005220002942934872
1206.7191987172919,0.00527541406808187
1209.2869908489847,0.005334275531806713
1211.8540334080099,0.005396728873923112
1214.389411983815,0.005462109333438193
1216.9549654029506,0.005532180973710042
1219.5197702293917,0.005606357106357015
1222.0529389950316,0.005683871464648863
1224.61625662804,0.005766837867897371
1227.1788266466283,0.005854584249700565
1229.7406493778217,0.005947380890138326
1232.2708732581305,0.006044308158750612
1234.8312113884967,0.006148050570702026
1237.3908032074723,0.006257812962955084
1239.9188240118929,0.006372543416912323
1242.4769331685857,0.006495459781687487
1245.0342969881858,0.00662566573615966
1247.560117592806,0.006761957007895971
1250.116000685306,0.006908206251913679
1252.6711394133126,0.00706340453699445
1255.194762689218,0.007226167058082418
1257.7484226219312,0.0074011768025295434
1260.3013391610693,0.007587292252548816
1262.822767974354,0.007782904485527467
1265.3742076466478,0.007993698582544671
1267.924904894593,0.008218359601645598
1270.4441421063602,0.008454979174973575
1272.993364412563,0.00871046204847964
1275.5418452619597,0.008983228714361555
1278.0588937283464,0.009270928076656096
1280.6059015577484,0.009581883815020389
1283.1521688962057,0.009914044015608308
1285.6670314683906,0.010264326943282442
1288.2118277052796,0.010642535431149317
1290.755884415401,0.011045684019536756
1293.2685639396113,0.011469382379950271
1295.811151463251,0.01192456951904789
1298.3530004226377,0.012406379041844986
1300.8634997401532,0.012908035797419252
1303.403881424827,0.013440432333683862
1305.9129317732186,0.013988359173607188
1308.4518474532706,0.014561437011889458
1310.9900261682633,0.015147752344240616
1313.4969010306886,0.015733018132833943
1316.0336156473168,0.016322571441218882
1318.5695942569437,0.01689843447709472
1321.074296461582,0.017441749608138594
1323.6088128757874,0.01795241100666737
1326.112071126503,0.01840472216123078
1328.6451266095319,0.018796873662542905
1331.1774476773753,0.01911196719888089
1333.6785379692556,0.01933980469045016
1336.209400003383,0.019482000762894205
1338.7090494631484,0.019535612638720896
1341.2384537241596,0.01950688594506302
1343.76712515721,0.01940363657455158
1346.2646113435585,0.019240327231397784
1348.7918268954818,0.019027025518796578
1351.2878753625337,0.018783598224949686
1353.8136362903097,0.018519022761062442
1356.338665972784,0.018250378738028695
1358.832555838333,0.017993740529212075
1361.3561327831994,0.01775438830693781
1363.8485880333137,0.017548164452919148
1366.3707134939323,0.017379238093794977
1368.8921092873425,0.01725897011862401
1371.3824105944368,0.01719623187348111
1373.9023567847216,0.017198293856645307
1376.3912265713043,0.017274731792058667
1378.9097244082113,0.017438720174836518
1381.3971639082774,0.017699303402063053
1383.914214640121,0.018077821979698237
1386.4002250862322,0.018580406564303133
1388.9158299598967,0.019231694391446227
1391.4307079939972,0.02002770755731612
1393.9145728441363,0.02093252303777757
1396.4280068914595,0.02189918387682564
1398.9104457665926,0.022778052852186977
1401.422437070447,0.023417516100960285
1403.9034511981918,0.023650729640714043
1406.4140010004412,0.02343420239849429
1408.893591607004,0.022858802507941634
1411.4027011481012,0.02207788626547537
1413.8808694582804,0.021269795629055715
1416.388539977259,0.020523053201798487
1418.8954870924463,0.01989978685975433
1421.3715199489052,0.019418127507648573
1423.877029901585,0.019059167506298165
1426.3516435212223,0.01881672929575215
1428.8557175468777,0.018668358049735774
1431.3289131495767,0.01860267595135449
1433.8315524822574,0.018605165047067974
1436.3033312865118,0.018665370726889834
1438.8045371588632,0.018776285430329883
1441.2749003817698,0.01892860357366875
1443.7746740250223,0.01912069296630251
1446.2436228822844,0.01934374689805991
1448.7419655262602,0.019599821554689378
1451.2095012321843,0.01988007814116197
1453.7064141053015,0.020189163441469676
1456.1725378728079,0.020517875903856418
1458.6680222020732,0.02087276538024248
1461.1327352426997,0.021244075004506573
1463.6267922537227,0.021639821107009627
1466.090095777603,0.0220495807255504
1468.582726694589,0.022482547359838713
1471.044621910496,0.022927568513321974
1473.5358279562424,0.023394809877555264
1475.996316071556,0.023872354921280915
1478.4860984674815,0.02437118279238448
1480.9451806882025,0.024878598681995524
1483.4335406543069,0.02540625915120388
1485.8912181850574,0.02594069416458777
1488.3781569399653,0.02649410936908254
1490.8344309839958,0.027052280347792047
1493.2900079848114,0.027620838068689986
1495.7748215041174,0.028205825483960834
1498.2289968168734,0.028791973669506213
1500.7123921617567,0.029392271726762176
1503.1651669862695,0.029990847483217873
1505.647145370498,0.03060074104597147
1508.0985209052233,0.03120559004916178
1510.579083541168,0.031818316654922914
1513.02906098319,0.0324222197499534
1515.5082090818432,0.033029923946810424
1517.9567896268818,0.03362458426372355
1520.4046764008053,0.03421124617092197
1522.8817092402714,0.034794448075911616
1525.3282009046197,0.03535759630555713
