Raman Shift (cm-1),Fitted Intensity
171.300781,0.04317062941874632
173.222656,0.045589677458799015
175.146484,0.048295813069381306
177.068359,0.05133663950976919
178.990234,0.05477701024008536
180.910156,0.058683050014446264
182.832031,0.06313779030694676
184.751953,0.06820552312539448
186.671875,0.07395193655934958
188.591797,0.08041259342705911
190.511719,0.0875802054331683
192.429688,0.09537887608902437
194.347656,0.10367358261731961
196.265625,0.1122413260538936
198.183594,0.12078353984596193
200.099609,0.1289384254741016
202.015625,0.13634165384500063
203.933594,0.14265044298327625
205.847656,0.14757115077257307
207.763672,0.15095772807090302
209.677734,0.1527781709297519
211.59375,0.15315279332969156
213.507812,0.15232028552461266
215.419922,0.1506094927820317
217.333984,0.14838232971342757
219.246094,0.1460016278073348
221.158203,0.14377814033792077
223.070312,0.14195433743005292
224.982422,0.14069199019324585
226.892578,0.14007519129372428
228.802734,0.1401200560551012
230.712891,0.1407949609595677
232.623047,0.14203601804236843
234.533203,0.14376201046508968
236.441406,0.14588345425685456
238.349609,0.1483167173903827
240.257812,0.15098268689401734
242.166016,0.1538102020185032
244.072266,0.15673332926912587
245.980469,0.15970287681091194
247.886719,0.1626643599387922
249.791016,0.16557516851381096
251.697266,0.1684033724866681
253.601562,0.1711093294625136
255.507812,0.17366814664782906
257.412109,0.17604721740441306
259.314453,0.17822255766881623
261.21875,0.18017669400683442
263.121094,0.1818862186907581
265.023438,0.18333633956922205
266.925781,0.18451260103881395
268.828125,0.18540301730079536
270.728516,0.18599762587050062
272.628906,0.18629049718055335
274.529297,0.18627712209912523
276.429688,0.18595545853464024
278.330078,0.1853258988874201
280.228516,0.18439232921915288
282.126953,0.18315931773082464
284.025391,0.1816341132297927
285.923828,0.1798260402050727
287.822266,0.17774635083659737
289.71875,0.17541060556908245
291.615234,0.17283137394548292
293.511719,0.17002462391118228
295.40625,0.16701073290952453
297.302734,0.1638016222982021
299.197266,0.16042278344113617
301.091797,0.15689043618076295
302.986328,0.15322435031938797
304.878906,0.14944838582534503
306.773438,0.14557458419943292
308.666016,0.14163050080590464
310.558594,0.13763131454911753
312.449219,0.13359975467455285
314.341797,0.12954530930171768
316.232422,0.12549329647218513
318.123047,0.12145552662208862
320.013672,0.11744695234496566
321.904297,0.11348142237475789
323.792969,0.10957563718674712
325.681641,0.10573694868340704
327.570312,0.10197563424744029
329.458984,0.09830076825084837
331.347656,0.09472024879665221
333.234375,0.09124436126046799
335.121094,0.0878749629563201
337.007812,0.0846166040367565
338.894531,0.08147282556990897
340.779297,0.0784493056612644
342.664062,0.07554446099113525
344.548828,0.07275922328739963
346.433594,0.07009380953859647
348.318359,0.06754779315417783
350.201172,0.06512263098260242
352.085938,0.06281180755204073
353.96875,0.060618211725613345
355.849609,0.05853924270510281
357.732422,0.05656805990672684
359.613281,0.05470602290157767
361.494141,0.05294814711198031
363.375,0.05129145892331978
365.255859,0.04973294234977214
367.134766,0.04827106489666056
369.015625,0.04689985011505556
370.894531,0.04561931858877864
372.773438,0.04442532984560773
374.650391,0.043316528969625304
376.529297,0.04228839270681357
378.40625,0.041341147409407836
380.283203,0.04047213112819663
382.160156,0.03968021695011045
384.035156,0.038965485836373284
385.912109,0.03832642487215025
387.787109,0.037765060274463656
389.662109,0.03728225929204512
391.537109,0.03688067462312875
393.410156,0.03656459464235643
395.283203,0.03633926007266628
397.15625,0.03621256762778084
399.029297,0.03619526158378768
400.902344,0.036301800785726465
402.773438,0.03655114066748759
404.646484,0.03696931279301408
406.517578,0.0375887513439487
408.388672,0.038452513988175535
410.257812,0.039612523763518
412.128906,0.041134966521722875
413.998047,0.04308829111788283
415.867188,0.04554699743098357
417.736328,0.048574138789042605
419.603516,0.05220130586595051
421.470703,0.05641796943462136
423.339844,0.061144404383394024
425.207031,0.06619686806280399
427.072266,0.07130775009258358
428.939453,0.0761426090124181
430.804688,0.08030514803590368
432.669922,0.0834280422147838
434.535156,0.0852142131601877
436.400391,0.08549686651963812
438.263672,0.08427410477667815
440.126953,0.08170650912084214
441.990234,0.07808637172671692
443.853516,0.073785400448609
445.716797,0.06919287254461624
447.578125,0.06466493817263408
449.439453,0.06047199898609076
451.300781,0.05679778824567148
453.162109,0.05373790057423909
455.023438,0.05131617902586781
456.882812,0.04950845981324822
458.742188,0.048258421334414846
460.601562,0.047502397621123994
462.460938,0.04717853580715556
464.318359,0.04723351433729165
466.177734,0.04762627500665243
468.035156,0.04832740600662991
469.892578,0.04932057738249463
471.748047,0.050598810514253564
473.605469,0.052169650148622036
475.460938,0.05404464772295942
477.316406,0.056250420381724
479.171875,0.058823346182802314
481.025391,0.06180946539032222
482.880859,0.06528026230972875
484.734375,0.06931328264316476
486.587891,0.07402179968434013
488.441406,0.07954779891377009
490.292969,0.08606648185814168
492.146484,0.09382434095909858
493.998047,0.10309670568297277
495.849609,0.11424714315791477
497.701172,0.12769319801969878
499.550781,0.14387607600601315
501.402344,0.16328896057632053
503.251953,0.18627568189321425
505.101562,0.21306228092769122
506.949219,0.24352081648848486
508.798828,0.2772002205573892
510.646484,0.31301267338642835
512.494141,0.34947405653064856
514.341797,0.3846746447217778
516.189453,0.41654045819261565
518.035156,0.4431212836469493
519.880859,0.46301277062107143
521.728516,0.47552976508679945
523.572266,0.480823175244344
525.417969,0.47992298711959275
527.261719,0.47443693848295293
529.107422,0.46624606817337905
530.951172,0.4571981613532816
532.792969,0.44877829509436346
534.636719,0.441935585277805
536.478516,0.43708961126807333
538.322266,0.43413800051898327
540.164062,0.4326312062969793
542.003906,0.4319064693197898
543.845703,0.4312503215963126
545.685547,0.43001899091539864
547.525391,0.42771170887715243
549.365234,0.42401199148011703
551.205078,0.418793172087919
553.044922,0.4120998128318931
554.882812,0.4041219570282584
556.720703,0.3951263915760059
558.558594,0.38543383354428606
560.396484,0.3753706275188919
562.232422,0.3652444413250612
564.068359,0.3552858871899555
565.90625,0.34565593199498923
567.740234,0.3364800855749814
569.576172,0.327751547813244
571.412109,0.3194414014318486
573.246094,0.31147131458990013
575.080078,0.3037148076960188
576.914062,0.29604002894987275
578.746094,0.2883241333554022
580.580078,0.2804328924646903
582.412109,0.27228804224987896
584.244141,0.263814824399749
586.076172,0.25497811048245106
587.90625,0.24578410653488142
589.738281,0.2362384796953528
591.568359,0.226411981626607
593.398438,0.21636511060443783
595.228516,0.20618299775686275
597.056641,0.19597066003218666
598.886719,0.18580399929271718
600.714844,0.17580124270427214
602.542969,0.16604292889454778
604.371094,0.15661242656263993
606.197266,0.14759231400095382
608.025391,0.13902499772174817
609.851562,0.13097863858109915
611.677734,0.1234822527630076
613.503906,0.11656392591361765
615.328125,0.11024935711267926
617.152344,0.10454319536841618
618.978516,0.09944812341610579
620.800781,0.09498528488067653
622.625,0.09114591026741325
624.449219,0.0879455644100399
626.271484,0.0854042548393518
628.09375,0.08354656491105826
629.916016,0.0824154112491265
631.738281,0.08207201410484899
633.558594,0.08259800287133102
635.380859,0.0841002146979979
637.201172,0.08670269867667782
639.021484,0.09054909079273904
640.839844,0.0957776039814478
642.660156,0.10252376660314766
644.478516,0.11084548922915637
646.296875,0.12073069521033694
648.115234,0.1320287210012851
649.933594,0.14442149749362865
651.75,0.157391489684791
653.566406,0.1702749451574032
655.382812,0.1822657995842282
657.199219,0.19250847482968325
659.015625,0.20020331013275858
660.830078,0.20471639197074193
662.646484,0.20569250541370956
664.460938,0.20308974710824654
666.275391,0.19720394458212204
668.087891,0.18862590186363937
669.902344,0.17811689335925482
671.714844,0.1665681538190124
673.527344,0.1548179245806217
675.339844,0.1436071350482422
677.150391,0.13352310290404962
678.962891,0.12493673388221135
680.773438,0.11808459547390428
682.583984,0.11303062377653497
684.394531,0.10974452292283807
686.205078,0.10813110516185778
688.013672,0.1080629514241079
689.822266,0.10940419595619258
691.630859,0.11203016122442402
693.439453,0.11583277593576621
695.248047,0.12072319147761776
697.054688,0.12662410436761243
698.861328,0.13348586977165974
700.667969,0.14126670226879104
702.474609,0.14993406756253072
704.28125,0.1594617231926638
706.085938,0.1698154624969418
707.890625,0.18098419036617647
709.695312,0.19294678767293186
711.5,0.20568052349372845
713.304688,0.21915989705579073
715.107422,0.23333999852532009
716.910156,0.24820158517862792
718.712891,0.26370631638751074
720.515625,0.27981052877117396
722.318359,0.29646504916089766
724.119141,0.31359624944421916
725.919922,0.3311616735000064
727.720703,0.34909578334867364
729.521484,0.3673280313558848
731.322266,0.3857834049106276
733.121094,0.4043628780873787
734.919922,0.42300502097728904
736.71875,0.441626854766803
738.517578,0.46014528969838175
740.316406,0.47847908879168444
742.113281,0.49653200699382904
743.910156,0.5142554660324975
745.707031,0.5315937765764231
747.503906,0.5485114951841025
749.300781,0.565004769023018
751.095703,0.5811023432943357
752.890625,0.596948885390271
754.685547,0.612805170140603
756.480469,0.6291613531500428
758.275391,0.646899703762525
760.068359,0.6674951096276428
761.861328,0.6930627354834771
763.654297,0.724355119255253
765.447266,0.7531650356479381
767.240234,0.7597040791267786
769.03125,0.7425408201425823
770.822266,0.721687013105478
772.613281,0.7071949699655868
774.404297,0.6993848881963182
776.195312,0.697161130753024
777.984375,0.7007159321291958
779.773438,0.7123949451190433
781.5625,0.7381015199621832
783.351562,0.7899346338456245
785.140625,0.8843570203449833
786.927734,0.9943106320456746
788.714844,0.982241623726165
790.501953,0.8660165244288308
792.289062,0.7794764287754633
794.076172,0.737060284106992
795.861328,0.7083963148017239
797.646484,0.667544632377563
799.433594,0.6186585974545368
801.216797,0.5758301998897852
803.001953,0.5424536398527463
804.785156,0.5167715555774021
806.570312,0.49654919251681356
808.353516,0.4803784329172048
810.136719,0.467397702227532
811.917969,0.4571677856122378
813.701172,0.4494440254814916
815.482422,0.44414767026631885
817.263672,0.44123728574141846
819.044922,0.44070434038098405
820.824219,0.44253137943619486
822.605469,0.44668132993121673
824.384766,0.45306115320687546
826.164062,0.4615359900437301
827.943359,0.4719067955259875
829.722656,0.4839121587883832
831.5,0.4972173663222068
833.279297,0.5114845915635898
835.056641,0.5262839867320307
836.832031,0.5412048601642044
838.609375,0.5558833621034152
840.386719,0.5699436649268537
842.162109,0.5830741932864285
843.9375,0.5950757509272325
845.712891,0.6058290087586607
847.488281,0.615316504940196
849.261719,0.6236111718419441
851.035156,0.6308917834449597
852.810547,0.6373990161018053
854.582031,0.6433859620492146
856.355469,0.6491565035995538
858.128906,0.6549668041418821
859.900391,0.6610253694395164
861.671875,0.6674845664435134
863.443359,0.674408812775084
865.214844,0.6817772875965805
866.984375,0.6894812617649017
868.755859,0.6973732271579266
870.525391,0.705228419349433
872.294922,0.7128306937959872
874.064453,0.7199642943954021
875.832031,0.7264404756669293
877.601562,0.7321456272796683
879.369141,0.7370069059322463
881.136719,0.7410441730433571
882.904297,0.7443417081200681
884.669922,0.7470426601444544
886.4375,0.7493446668572982
888.203125,0.7514601893789002
889.96875,0.7536138952582352
891.734375,0.7560111803691936
893.498047,0.7588188857429351
895.263672,0.762163827176652
897.027344,0.766100752744843
898.791016,0.7706342365707847
900.554688,0.7757082982739667
902.316406,0.7812133748071358
904.080078,0.7870268136069601
905.841797,0.7929898005591187
907.603516,0.7989758256806222
909.365234,0.8048918240408519
911.126953,0.810711628764371
912.886719,0.8164935981817082
914.646484,0.8224151125792414
916.408203,0.8287605613442953
918.166016,0.8358663645898547
919.925781,0.8441388553351816
921.685547,0.8538916446214965
923.443359,0.8652582908976857
925.201172,0.8781160145682013
926.958984,0.8919906683319689
928.716797,0.9060909833468768
930.472656,0.9194313030778298
932.230469,0.9311280770818373
933.986328,0.9405766872366578
935.742188,0.947756055276397
937.496094,0.9531980891319101
939.251953,0.9578002909460699
941.005859,0.9623250905640219
942.761719,0.966873442728492
944.515625,0.9703724074771326
946.267578,0.9704641054833104
948.021484,0.9637864807541491
949.773438,0.9467307445509564
951.527344,0.916322913274269
953.279297,0.8712665445616948
955.029297,0.8123050831761048
956.78125,0.7420075505639941
958.533203,0.6645823665695192
960.283203,0.584854722518418
962.033203,0.5071693525688025
963.783203,0.4350055692753684
965.53125,0.3706472485859213
967.28125,0.31492069170985854
969.029297,0.26791868185036244
970.777344,0.22888036628474373
972.525391,0.19677350707462532
974.273438,0.17047503182761983
976.019531,0.1489482647161549
977.767578,0.13122782495592863
979.513672,0.11659846184404751
981.259766,0.10443519463321685
983.005859,0.09426278493564381
984.75,0.08571733860788237
986.496094,0.07848712072323802
988.240234,0.07235732174446793
989.984375,0.0671353360091391
991.728516,0.06267362728143469
993.470703,0.05885695233797257
995.214844,0.05558001208412053
996.957031,0.05277138214614669
998.699219,0.0503627680069793
1000.441406,0.04830149986201506
1002.181641,0.04654624768391313
1003.923828,0.04505778555960644
1005.664062,0.04381063337893399
1007.404297,0.04277947149113247
1009.144531,0.04194514367623523
1010.884766,0.0412920667429822
1012.623047,0.04080804220110936
1014.363281,0.040481726586835215
1016.101562,0.04030553990651148
1017.839844,0.040272266703839786
1019.576172,0.04037616870269483
1021.314453,0.04061287608267061
1023.050781,0.04097795926412307
1024.787109,0.04146821063559522
1026.523438,0.04208054804208136
1028.259766,0.0428120519878423
1029.996094,0.043659833734803755
1031.730469,0.04461977328673715
1033.464844,0.0456896039603557
1035.199219,0.046865892696622516
1036.933594,0.04814485236555524
1038.667969,0.049522276659082244
1040.400391,0.05099177841446269
1042.134766,0.05255147955004074
1043.867188,0.054192135950777966
1045.599609,0.0559091583483496
1047.330078,0.05769362174069596
1049.0625,0.059542102000016514
1050.792969,0.06144242139771552
1052.523438,0.06338807843899989
1054.253906,0.06537000192335077
1055.984375,0.06737864696582113
1057.712891,0.06940174763462853
1059.443359,0.0714335451709079
1061.171875,0.07345884620883293
1062.900391,0.07546912269638932
1064.628906,0.07745342039764526
1066.355469,0.07939856832375537
1068.083984,0.08129802664056462
1069.810547,0.08313673108752918
1071.537109,0.0849063380833926
1073.263672,0.08659668090645253
1074.990234,0.08819803674395368
1076.714844,0.0896995906835531
1078.439453,0.09109469757531069
1080.164062,0.09237557683629373
1081.888672,0.09353525489587065
1083.613281,0.09456763757525091
1085.337891,0.09546757968360854
1087.060547,0.09623014929656498
1088.783203,0.09685335225192979
1090.505859,0.09733517167865713
1092.228516,0.09767468348305798
1093.951172,0.09787206295894416
1095.671875,0.09792859549287024
1097.392578,0.09784692344467649
1099.113281,0.09763042658231326
1100.833984,0.09728348422095807
1102.554688,0.09681142179789676
1104.273438,0.09622118419940322
1105.992188,0.0955192999533054
1107.712891,0.09471251826781989
1109.429688,0.09381211360244508
1111.148438,0.09282407639912371
1112.867188,0.09175873222197836
1114.583984,0.09062710632281264
1116.300781,0.08943794491046107
1118.017578,0.08820131024858689
1119.734375,0.08692731036646674
1121.449219,0.08562749531054664
1123.166016,0.08430881048822793
1124.880859,0.0829839186316158
1126.595703,0.08166066848349107
1128.310547,0.08034801899615905
1130.025391,0.07905447753196629
1131.738281,0.07778946685949223
1133.451172,0.07655891345833757
1135.164062,0.07536963442500189
1136.876953,0.07422781382546202
1138.589844,0.07313898405230347
1140.302734,0.0721080085982069
1142.013672,0.07114014167427325
1143.724609,0.07023767644448005
1145.435547,0.06940345022573671
1147.146484,0.06863965450369125
1148.855469,0.06794860042088637
1150.566406,0.06732967241931026
1152.275391,0.06678467711130717
1153.984375,0.06631272907301111
1155.693359,0.0659131966121723
1157.402344,0.06558499508914965
1159.109375,0.06532688544071853
1160.816406,0.06513659497802307
1162.525391,0.065011837615049
1164.230469,0.06495047100221403
1165.9375,0.06494947890078086
1167.644531,0.06500607182274425
1169.349609,0.06511703946276556
1171.054688,0.06527925159784752
1172.759766,0.06548946022742667
1174.464844,0.06574436493906691
1176.169922,0.06604064230462658
1177.873047,0.06637456952267547
1179.576172,0.06674318314590144
1181.28125,0.0671437285071309
1182.982422,0.06757161661056221
1184.685547,0.0680251961054217
1186.388672,0.06850101062372699
1188.089844,0.06899560991061189
1189.791016,0.06950678147079738
1191.492188,0.07003190244827082
1193.193359,0.07056847741879517
1194.892578,0.0711135118137775
1196.59375,0.0716660279437729
1198.292969,0.07222266212828832
1199.992188,0.07278208264542921
1201.691406,0.07334245506625364
1203.390625,0.07390207148028637
1205.087891,0.07445870638967618
1206.785156,0.07501153976001497
1208.482422,0.07555922156865233
1210.179688,0.07610050912054213
1211.876953,0.07663426321027236
1213.574219,0.07715944415066771
1215.269531,0.07767451714953633
1216.964844,0.07817923741683819
1218.660156,0.07867283336871352
1220.355469,0.07915461397522854
1222.050781,0.07962396218695313
1223.744141,0.08007981511872957
1225.4375,0.08052224382499118
1227.130859,0.08095083583627455
1228.824219,0.08136523908992169
1230.517578,0.08176515832995755
1232.210938,0.08215035416796569
1233.902344,0.08252022041419871
1235.59375,0.0828750736325157
1237.285156,0.08321482571397104
1238.976562,0.08353943525733018
1240.667969,0.08384890633051349
1242.357422,0.08414295529116178
1244.046875,0.08442203904440061
1245.736328,0.08468629022525431
1247.425781,0.084935882735644
1249.115234,0.08517103117434385
1250.802734,0.08539174304757052
1252.492188,0.08559882381650162
1254.179688,0.08579212805673236
1255.867188,0.08597227591183672
1257.554688,0.08613967938517507
1259.240234,0.08629461715651518
1260.927734,0.08643793877666602
1262.613281,0.08656984146799247
1264.298828,0.08669106604872565
1265.984375,0.08680222066854262
1267.667969,0.0869038410446434
1269.353516,0.08699685128462406
1271.037109,0.0870817640168205
1272.720703,0.08715946090652145
1274.404297,0.08723075265255925
1276.087891,0.08729649245690886
1277.771484,0.08735757656893083
1279.453125,0.08741488034410111
1281.134766,0.08746945824753609
1282.816406,0.08752233648865046
1284.498047,0.08757458735695767
1286.179688,0.0876273299741496
1287.859375,0.08768166679327584
1289.541016,0.08773893915428116
1291.220703,0.0878002770463834
1292.900391,0.08786705826904674
1294.580078,0.08794064843132428
1296.257812,0.08802236679300643
1297.9375,0.088113877446277
1299.615234,0.08821649598770584
1301.292969,0.08833190873105487
1302.970703,0.0884617617483518
1304.646484,0.08860758372899455
1306.324219,0.08877148605090907
1308.0,0.08895492200782112
1309.675781,0.08915997363062755
1311.351562,0.08938861374517854
1313.027344,0.08964288866430324
1314.703125,0.08992492004895117
1316.376953,0.09023652643849739
1318.050781,0.09058029314362002
1319.724609,0.09095857643867103
1321.398438,0.09137381844254307
1323.072266,0.09182854853290343
1324.744141,0.0923247818398554
1326.417969,0.09286638759939356
1328.089844,0.09345490152354374
1329.761719,0.09409382102019137
