Raman Shift (cm-1),Fitted Intensity
217.02243211472887,0.005717485300837715
217.78187470325793,0.005741689253271537
218.57577103188305,0.0057672249536803635
219.33508664514375,0.005791874895776181
220.1288502435491,0.0058178832097747326
220.88803891339194,0.0058429913961995355
221.68166981485774,0.005869485355949437
222.44073157310413,0.005895064467188852
223.23422981090334,0.0059220575586616826
223.9931646893856,0.005948120717695054
224.78653029677662,0.005975626898430731
225.5453383272943,0.006002187688032486
226.33857133753554,0.006030221405563413
227.09725255188823,0.00605729388624978
227.89035299821262,0.0060858700972022265
228.64890742819625,0.006113468825832006
229.44187534382945,0.006142603015720151
230.20030302121813,0.0061707430647613415
230.9931384393858,0.006200451268482813
231.7514393959391,0.006229148245956041
232.54414234984506,0.006259447068997231
233.30231661733342,0.0062887171391034094
234.09488714016334,0.006319623779463374
234.8529347503245,0.0063494836838975865
235.64537287527492,0.006381015954735029
236.40329385984296,0.006411483034694876
237.1955996200777,0.00644365938769579
237.95339401078672,0.006474751606580537
238.7455674394696,0.006507591156050745
239.50323526802458,0.006539327122847526
240.2952763983085,0.006572849670520076
241.05281769641442,0.006605248663873934
241.8447265614377,0.006639474724424018
242.60214136079594,0.006672556717377046
243.3939179936824,0.0067075075446304255
244.15120632596518,0.006741293230014845
244.94285075983498,0.006776990843831255
245.70001265672545,0.006811501660299331
246.49152492468056,0.006847968874104734
247.24856041783278,0.00688322703276325
248.0399405529788,0.00692048748170314
248.7968496740432,0.0069565159933260585
249.58809770945663,0.006994594162998377
250.34488049007632,0.007031416865774635
251.1359964588264,0.007070338121502432
251.89265293063363,0.007107979709273428
252.6836368657896,0.00714777032586166
253.44016706039474,0.0071862563767936885
254.23101899500762,0.007226943568707836
254.98742294402837,0.007266300574338538
255.77814291113827,0.0073079125262368455
256.5344206461632,0.007348167920817947
257.29063668807066,0.007388872804916814
258.081160231417,0.007431916008414708
258.8372501063641,0.007473561938451013
259.62764176439305,0.007517604463251669
260.3836055039428,0.007560221348376265
261.1738653096545,0.007605295006151658
261.92970294537736,0.0076489138016742056
262.71983093176095,0.007695051513261549
263.4755424952018,0.007739704250157982
264.26553869523195,0.007786940076272982
265.0211242179357,0.007832659890398216
265.81098866458706,0.007881029061960662
266.5664481780841,0.007927850222809635
267.3218460985445,0.007975222641966975
268.11151444011193,0.008025347109565905
268.8667863982955,0.008073874059815458
269.6563230684915,0.008125224830985076
270.41146909588497,0.008174943523759172
271.2008741276368,0.008227560139977323
271.9558942557451,0.008278509014656323
272.7451676819728,0.00833243231413947
273.5000619422826,0.008384651062516717
274.25489467866646,0.008437505468125118
275.04397221986073,0.008493452794198096
275.79867913530325,0.008547638539574522
276.5876251528571,0.008604999977516221
277.3422062787977,0.008660559967008203
278.13102080559474,0.008719381061193913
278.8854761734874,0.008776359522948597
279.6398700711143,0.008834047960708524
280.42848888367735,0.008895129711320227
281.18275707005523,0.008954304957121892
281.97124447364695,0.009016965794385753
282.7253869802007,0.009077675431254262
283.51374300766474,0.009141965813270269
284.2677598657974,0.009204258788124685
285.0217153072408,0.009267344066494454
285.80987579108114,0.00933415722869305
286.5637056308515,0.009398901255546762
287.35173482025493,0.009467475751140611
288.1054390897334,0.009533930874974155
288.85908198071775,0.00960124199779118
289.64691574807875,0.009672542070147986
290.4004331154756,0.009741644743275412
291.18813567003235,0.009814846745251989
291.9415275452084,0.009885796671529945
292.69485808003446,0.009957670370678481
293.48236533402815,0.01003381372674788
294.2355704233014,0.010107620044020141
295.0229465460434,0.010185814503017667
295.77602622109407,0.01026161236252067
296.52904459392084,0.01033840568462044
297.31622553748093,0.010419769737200577
298.0691185427131,0.010498644605878665
298.8561684365195,0.010582217034650874
299.6089361054619,0.010663235358259525
300.3616425102773,0.010745324460928634
301.1484973461811,0.01083230626347432
301.9010784612947,0.010916633023685358
302.6878023288664,0.011005987803386338
303.44025818556474,0.011092616753693552
304.19265281618937,0.011180394987454672
304.9791817470432,0.011273409063697965
305.7314511658042,0.011363587249678201
306.5178492096784,0.011459145114079517
307.269993447826,0.011551789906514913
308.0220764979349,0.01164566506257681
308.80827972617044,0.011745140338844638
309.56023764218116,0.011841582557782076
310.3121343928833,0.011939304549018575
311.09814287786503,0.012042854523562343
311.84991454096235,0.012143245128167246
312.63579226885486,0.01224962084442572
313.3874388755503,0.012352748655271523
314.1390243549249,0.01245723966682551
314.92470746048275,0.012567955657865646
315.6761679299125,0.012675286199873414
316.42756729471876,0.012784029942204959
317.21305585022856,0.012899245366176346
317.96433025152146,0.01301093069271846
318.71554357088826,0.013124078937840742
319.5008376486003,0.01324395205319275
320.25192605085977,0.013360143037246874
321.03708954970716,0.013483232375244774
321.7880530660077,0.01360253318834387
322.53895553829716,0.013723378503389965
323.32392468004764,0.013851385211195983
324.07470231274783,0.013975438420174284
324.8254189240979,0.014101083420333404
325.6101937809108,0.014234158012081815
326.3607855990158,0.014363106062438694
327.1113164184244,0.014493691561566931
327.8958970624226,0.01463197935251517
328.6463031349085,0.014765959273204036
329.39664823133353,0.014901620223964252
330.18103473459996,0.015045259914910023
330.9312551304065,0.015184401931529213
331.68141457278034,0.01532526600692732
332.4656070073652,0.015474388167896376
333.2156417953993,0.015618814220902718
333.965615652618,0.015765000302368663
334.74961409053867,0.015919725760440942
335.4994633396673,0.016069547933627422
336.24925168059053,0.016221164511479508
337.0330561938208,0.01638160264949268
337.7827199728854,0.016536921515810953
338.53232286633283,0.016694065009801463
339.3159335268283,0.016860311984673505
340.0654119046303,0.01702121487840715
340.81482941939976,0.017183967888029016
341.5982462990578,0.017356104779507255
342.34753934436594,0.01752266400585441
343.09677154921883,0.017691093502129284
343.87999471991134,0.01786918440499656
344.62910250146524,0.018041455400204336
345.378149465123,0.018215610872807153
346.1611789986855,0.018399700947746636
346.91010158518475,0.01857772040507763
347.65896337633967,0.01875763198078533
348.441799344575,0.01894774548138133
349.1905368046828,0.01913152946034066
349.9392134919908,0.019317206010917003
350.68782941390236,0.01950477360985442
351.4704083690158,0.01970288634481657
352.21890002110376,0.019894313604544505
352.96733093031435,0.020087621867750947
353.749716487142,0.020291722470636802
354.4980231725931,0.02048886118569177
355.24626913768225,0.020687862259442396
356.02846136790686,0.02089789129878501
356.77658315527515,0.0211006754325301
357.5246442447824,0.021305294107487778
358.27264464382097,0.021511736096577687
359.05458017785713,0.02172949797086434
359.8024564602965,0.021939630001737886
360.55027207475723,0.02215154451620973
361.3320144489553,0.022374980371119912
362.0797059928009,0.0225904909144266
362.82733689114684,0.022807732746950207
363.60888617707315,0.023036679534213955
364.3563930507662,0.023257401732910705
365.1038393014278,0.02347979323485857
365.85122493641757,0.023703831269419023
366.63251784256136,0.023939787299262896
367.3797795139326,0.02416711720616573
368.12698059208924,0.024396016775099852
368.8741210844055,0.024626458262823208
369.6551577368991,0.024868991520731118
370.402174326573,0.025102495264430025
371.14913035283826,0.02533744870965733
371.92997417845254,0.025584596244304106
372.67680634796125,0.02582241134134388
373.42357797648947,0.026061572189530563
374.1702890713932,0.02630204208643388
374.95087686424813,0.02655480085620358
375.69746416330963,0.0267978287056482
376.44399095116023,0.027042046016267255
377.1904572351632,0.027287410967466647
377.97078912116194,0.02754510917753597
378.71713167018606,0.02779268606489098
379.46341373775795,0.028041275547060117
380.20963533121903,0.02829083078919493
380.9897114361884,0.028552709890215657
381.7358093555158,0.02880408959786694
382.4818468231133,0.029056285022210117
383.22782384634047,0.029309244514230677
384.0076442960235,0.029574461797437175
384.75349770589673,0.02982881848807554
385.49929069376594,0.030083774969063195
386.24502326696165,0.03033927507963964
387.0245881870105,0.030606907971363125
387.77019720761746,0.030863340721843914
388.51574583590264,0.031120139673355116
389.2612340792148,0.031377244562878666
390.0405435952125,0.03164629671172157
390.7859083466392,0.031903835780065115
391.5312127354264,0.032161491620507965
392.27645676890825,0.032419200387236516
393.0555110063433,0.03268860960936044
393.8006316086139,0.032946224490444445
394.5456918778982,0.0332036931457486
395.2906918215267,0.03346094877727865
396.06949090581475,0.03372959689499242
396.8143674788662,0.03398620619092014
397.5591837485699,0.03424239541400002
398.30393972224556,0.034498095555074104
399.08248377871496,0.034764820132171644
399.82711644241135,0.035019303232980414
400.57168883236955,0.0352730847277735
401.31620095591643,0.03552609424512591
402.06065282036434,0.03577826121980587
402.8388789839337,0.03604091273142584
403.5832076139195,0.03629113604022751
404.3274760070817,0.03654030133625124
405.071684170729,0.036788337895430956
405.8158321121773,0.037035175116410204
406.5937405775112,0.03729187343804474
407.33776535995275,0.03753603843955836
408.0817299424489,0.03777879054759747
408.8256343323046,0.03802006035576491
409.6032882071304,0.03827063726358622
410.34706949843894,0.038508660992207316
411.0907906193461,0.03874499428329466
411.83445157716415,0.03897957011106573
412.5780523791873,0.03921232223059008
413.3553889061186,0.03945363309704065
414.09886668493345,0.03968245227103673
414.8422843301778,0.03990925162246724
415.58564184915303,0.04013396888044389
416.3289392491424,0.04035654296374848
417.10595862239643,0.04058687763766177
417.8491330744655,0.04080488315223858
418.59224742975493,0.04102056768158436
419.33530169556616,0.041233875830835515
420.07829587917877,0.0414447538323907
420.85499829281616,0.04166256237363956
421.59786960372367,0.04186830946387136
422.3406808546242,0.042071473624134686
423.0834320528011,0.04227200860232144
423.82612320553744,0.04246987024079377
424.5687543201093,0.04266501657282646
425.3450772086435,0.04286608690879474
426.08758554056476,0.043055558214457966
426.8300338564841,0.04324220092375937
427.57242216369195,0.0434259829474146
428.31475046945343,0.04360687489661211
429.0907568243929,0.04379287027961402
429.832962422588,0.04396777108370094
430.5751080414848,0.044139710057726184
431.31719368836275,0.04430866984339257
432.0592193704797,0.04447463634111319
432.8011850951152,0.04463759882817319
433.5768124349561,0.044804748970676295
434.3186555419052,0.044961548321157244
435.060438713499,0.04511533307962097
435.80216195699177,0.04526610745534633
436.5438252796521,0.04541387968148004
437.28542868873774,0.04555866215546691
438.0606772910869,0.0457068471522512
438.80215817228964,0.04584557110406053
439.54357916202935,0.045981370245846614
440.28494026754925,0.046114275361241096
441.026241496118,0.046244322189652964
441.76748285497524,0.04637155160286069
442.542352997174,0.046501601950170036
443.28347191786816,0.04662321831309939
444.0245309909369,0.04674217530491897
444.7655302236417,0.046858536531358526
445.50646962321844,0.046972371752222956
446.2473491969213,0.04708375711424803
446.98816895199343,0.04719277539553586
447.7625983811886,0.047304315547955986
448.5032958025331,0.0474087791262147
449.243933427304,0.047511171299425316
449.9845112627445,0.04761160442968562
450.72502931609415,0.04771019894403749
451.4654875945889,0.04780708366251769
452.2058861054684,0.0479023961418551
452.97987519754315,0.04800051924048143
453.72015147901766,0.04809308283769268
454.4603680149121,0.04818455074838409
455.2005248124515,0.048275099709172514
455.9406218788754,0.048364917170017306
456.68065922140886,0.04845420173192202
457.4206368472878,0.048543163597816325
458.16055476373367,0.04863202503500597
458.9340414783692,0.048725073267385385
459.67383728439745,0.048814474750808745
460.41357340299146,0.04890453195123333
461.15324984138715,0.048995520812404096
461.8928666068023,0.049087731757507226
462.6324237064546,0.04918147015611788
463.3719211475691,0.04927705677440679
464.1113589373563,0.04937482820132307
464.884343763526,0.049479762958032664
465.6236595617265,0.049583120172392074
466.3629157305804,0.04968978858005055
467.1021122773054,0.04980017231107387
467.8412492091047,0.04991469276503063
468.58032653320333,0.05003378867511116
469.31934425680447,0.0501579160654715
470.0583023871113,0.0502875480853763
470.79720093134165,0.0504231747026034
471.56962207053584,0.05057192544213295
472.30839875658785,0.0507214077965797
473.04711587851125,0.05087847473255632
473.7857734434947,0.05104367754547183
474.5243714587523,0.051217579966864706
475.2629099314763,0.05140075659003369
476.00138886887726,0.0515937910144902
476.73980827814376,0.051797273690059105
477.47816816647537,0.05201179944287521
478.21646854107166,0.05223796466729206
478.9882643984347,0.0524875007835951
479.7264430627947,0.05273932106036366
480.4645622353273,0.05300457216059546
481.20262192322116,0.053283820871026316
481.9406221336685,0.05357761591618346
482.678562873858,0.05388648296795005
483.416444150982,0.05421091930925457
484.15426597222176,0.05455138817167329
484.89202834476237,0.05490831277376808
485.6297312757961,0.055282070094357205
486.367374772497,0.05567298442266652
487.13848397878246,0.056100298922890146
487.8760059276392,0.056527060668943946
488.6134684640383,0.056971573303384385
489.3508715951575,0.057433879534920046
490.08821532817456,0.05791393551506054
490.8254996702708,0.058411604385493476
491.56272462860943,0.05892665011751637
492.2998902103791,0.05945873174289622
493.0369964227466,0.060007398079223416
493.7740432728824,0.06057208305554506
494.511030767957,0.061152101744838545
495.24795891514077,0.06174664720922904
495.98482772160787,0.062354788261235986
496.7216371945178,0.06297546823975643
497.4918745745599,0.06363648297700888
498.22856270570264,0.06427899330870938
498.9651915251052,0.06493005679380826
499.70176103994163,0.06558812068111733
500.4382712573679,0.06625151898592624
501.17472218453986,0.06691847897757756
501.911113828628,0.06758712907401306
502.6474461967773,0.06825550813317251
503.3837192961546,0.06892157611063157
504.1199331339085,0.06958322603116762
504.8560877172022,0.07023829720046017
505.59218305318427,0.07088458956110509
506.3282191490034,0.07151987907602078
507.0641960118155,0.07214193400173914
507.80011364876555,0.07274853189497228
508.5359720670094,0.07333747717852249
509.27177127369214,0.07390661907722883
510.00751127595504,0.0744538697220603
510.77663071110874,0.07500041179659836
511.5122496356853,0.07549674145477223
512.2478093776044,0.07596539433364113
512.9833099440075,0.07640471747477172
513.7187513420322,0.07681320698187491
514.4541335788235,0.07718952251817485
515.1894566615156,0.07753250046399401
515.924720597246,0.0778411655516843
516.659925393149,0.07811474081323064
517.3950710563695,0.07835265569716159
518.1301575940306,0.07855455223524709
518.8651850132665,0.0787202891656414
519.6001533212111,0.07884994394691114
520.335062524995,0.07894381262655073
521.069912631745,0.079002407557364
521.804703648595,0.07902645298504167
522.5394355826611,0.07901687855979686
523.2741084410809,0.07897481085350119
524.0087222309703,0.07890156299084879
524.7432769594598,0.07879862252818921
525.4777726336652,0.07866763773637694
526.2122092607133,0.07851040246386104
526.9465868477237,0.07832883977302624
527.6809054018049,0.07812498455616719
528.4151649300911,0.07790096534730635
529.1493654396836,0.077658985552299
529.8835069377128,0.07740130432208024
530.6175894312764,0.07713021729294213
531.3516129275049,0.07684803741298674
532.0855774334959,0.07655707606620266
532.819482956369,0.07625962469453246
533.5533295032292,0.07595793710485751
534.2871170811886,0.07565421263171768
535.0208456973523,0.07535058030873415
535.7545153588253,0.07504908418214079
536.4881260727198,0.07475166987922142
537.2216778461334,0.07446017252310516
537.9551706861675,0.07417630606369016
538.6886045999308,0.07390165407298677
539.4219795945137,0.0736376620321064
540.1552956770283,0.07338563111686801
540.8885528545616,0.0731467134700038
541.621751134222,0.07292190893014348
542.3548905230964,0.07271206317181877
543.0879710282788,0.07251786719632909
543.8209926568743,0.07233985810102338
544.5539554159623,0.07217842104412318
545.2868593126404,0.07203379231379667
546.0197043540029,0.07190606340386672
546.7524905471291,0.0717951859940263
547.4852178991168,0.07170097772985336
548.2178864170455,0.07162312869707436
548.9504961080092,0.07156120848521544
549.6830469790839,0.07151467373798251
550.4155390373562,0.0714828760910982
551.147972289913,0.07146507040284372
551.8803467438302,0.07146042318792062
552.6126624061908,0.07146802117133959
553.3449192840671,0.07148687988564992
554.077117384546,0.07151595224178144
554.8092567146996,0.07155413701091487
555.5413372816074,0.07160028716199233
556.2733590923381,0.0716532180065766
557.0053221539674,0.07171171510967804
557.7372264735714,0.07177454193176444
558.4690720582112,0.07184044717340414
559.2008589149664,0.07190817179978949
559.9325870509019,0.07197645572768614
560.6642564730864,0.07204404416217618
561.3958671885885,0.0721096935748256
562.1274192044657,0.07217217731867134
562.8589125277904,0.0722302908786627
563.557101409664,0.07228060407616928
564.2884800361171,0.07232680495386211
565.0197999908705,0.07236525160927684
565.7510612810001,0.07239487148571716
566.4822639135564,0.07241463491020879
567.2134078955969,0.07242355826578875
567.9444932341794,0.07242070684252741
568.6755199363579,0.07240519737692602
569.4064880091901,0.07237620028945113
570.1373974597191,0.07233294162994766
570.8682482950098,0.0722747047405378
571.5990405221055,0.07220083164542092
572.3297741480565,0.07211072417672547
573.0604491799168,0.07200384484530903
573.7910656247223,0.07187971746513637
574.521623489527,0.07173792753960359
575.252122781374,0.07157812241799798
575.9825635073103,0.07140001123008258
576.7129456743751,0.07120336460670816
577.4100740317808,0.07099821036130445
578.1403417631991,0.07076490471968662
578.8705509565516,0.07051273963456091
579.6007016188742,0.07024172231310255
580.3307937572026,0.06995191719193974
581.0608273785729,0.06964344454767832
581.7908024900207,0.06931647894973168
582.520719098582,0.06897124756430466
583.2505772112818,0.06860802831866822
583.980376835163,0.06822714793512376
584.7101179772508,0.0678289798444273
585.4398006445663,0.06741394198862248
586.1694248441527,0.06698249452357656
586.8658297721449,0.06655580952958907
587.5953397141711,0.06609376673519876
588.3247912092156,0.06561689709923776
589.054184264307,0.06512580361720534
589.7835188864665,0.06462111900296227
590.5127950827155,0.06410350301828449
591.2420128600788,0.06357363977848841
591.9711722255634,0.06303223504528684
592.7002731862012,0.06248001351783264
593.4293157489992,0.06191771613291219
594.1582999209822,0.06134609738476135
594.8872257091571,0.06076592267495377
595.5829640500015,0.06020484884831023
596.3117757446234,0.059610190394281615
597.0405290761628,0.059009276171278595
597.7692240516226,0.058402889664888887
598.4978606780169,0.05779181290721729
599.2264389623524,0.0571768241968464
599.9549589116359,0.056558695908388565
600.6834205328742,0.055938192397986954
601.4118238330666,0.055316068010446806
602.1401688192273,0.05469306519297502
602.8353528232146,0.054098230935050645
