Raman Shift (cm-1),Fitted Intensity
307.71441355443676,0.004894748784389426
308.36391220437145,0.0049366999049719265
309.01336522421843,0.004979226833885283
309.6969506915775,0.0050246239615883235
310.34631006473137,0.005068361066080371
310.99562382247314,0.005112701719787633
311.6790627139999,0.005160038343643817
312.32828285516734,0.005205647086949929
312.9774573955983,0.005251888057937
313.6607497584264,0.005301256324228361
314.30983071238734,0.005348825174469171
314.9588660802692,0.005397055817726195
315.64201196152135,0.005448550720736184
316.29095377302656,0.005498170789708206
316.93985001311376,0.005548483038518612
317.58870068658143,0.005599497586840286
318.27165217367656,0.005653967037652895
318.920409330698,0.005706455171718164
319.5691209357501,0.005759676953919965
320.25192605085977,0.0058165039070186475
320.9005441695299,0.0058712642686249055
321.54911675086987,0.005926790231587743
322.2317755410477,0.005986077347105298
322.8802546660554,0.0060432080011228176
323.52868826836857,0.006101136690034308
324.2112007806463,0.006162988169015906
324.8595409566624,0.006222588502711348
325.5078356246195,0.006283019640330183
326.19020190600713,0.006347540759226452
326.8384031776877,0.0064097110181429474
327.486558955934,0.006472745018982831
328.1687790534197,0.006540041594449177
328.81684146540283,0.006604882350999188
329.4648583985654,0.006670619767232814
330.14693235912273,0.0067407975480439555
330.7948559560209,0.006808409099966387
331.4427340887123,0.006876949996391699
332.12466195928937,0.0069501139798961
332.7724467857006,0.007020595676362409
333.4201861625079,0.007092038932447407
334.10196799003825,0.007168292603748697
334.74961409053867,0.007241742097659704
335.3972147560344,0.007316184635494215
336.07885058742613,0.0073956291284355295
336.7263580065737,0.007472141554355578
337.3738200053085,0.0075496774922735425
338.05530988745886,0.0076324106723521055
338.70267866978975,0.007712077750558174
339.3500020462998,0.007792797483282865
340.03134602607315,0.007878912953795756
340.67857621611256,0.007961822022095787
341.3257610149085,0.008045811229468621
342.00695913915115,0.00813539726353299
342.6540507814025,0.00822163023980478
343.30109704698043,0.008308968827513023
343.98214936252407,0.008402107230050793
344.62910250146524,0.008491739509888584
345.2760102782995,0.008582500487063776
345.95691683195764,0.008679265392429483
346.60373151205204,0.008772364687823766
347.25050084460236,0.00886661298796569
347.93126168316303,0.008967069600587586
348.57793794885583,0.00906369472719515
349.2245688815601,0.009161485980532286
349.9051840517932,0.009265689267717838
350.55172194750776,0.009365888889998324
351.1982145247821,0.009467268157136258
351.8786840734356,0.009575261505030512
352.52508364358073,0.009679072850291333
353.17143790982664,0.009784073328774318
353.851761883634,0.00989588717434526
354.4980231725931,0.010003334728520163
355.1442391721903,0.010111976445718951
355.8244176178596,0.01022762689951846
356.47054067000136,0.010338721099297933
357.116618447315,0.01045100960681577
357.796651411536,0.010570497083125146
358.4426362712111,0.010685233020782777
359.0885758705808,0.010801158107278214
359.73447021440006,0.010918269430622273
360.4143101115624,0.011042822138936963
361.06011157731336,0.011162356579893624
361.7058678020294,0.011283064436486223
362.3855623263371,0.011411386924780513
363.03122570277264,0.011534485289225278
363.6768438526851,0.011658738037009345
364.3563930507662,0.011790769107096758
365.00191838217506,0.011917366642584084
365.64739850156184,0.01204509297353523
366.3268024200188,0.012180750366811018
366.97218975066426,0.012310761985062185
367.6175318837886,0.012441869948821916
368.29679056920577,0.012581049362316205
368.94203994333657,0.012714368748734758
369.58724413443633,0.012848744907844167
370.26635763338345,0.012991319157206912
370.9114690952265,0.013127818027990772
371.5565353885286,0.013265326768558707
372.2355037475427,0.013411145123114088
372.88047734131396,0.013550672653875818
373.52540578101616,0.013691155675551065
374.20422904662337,0.013840043390504358
374.8490648165134,0.01398242584009752
375.49385544680626,0.01412570184891843
376.1725336655036,0.014277459919286885
376.81723165568474,0.01442250047196303
377.4618845207333,0.014568365098897487
378.14041773901045,0.014722770258857775
378.78497799363686,0.014870249106853022
379.429493137588,0.015018475073725564
380.10788140190925,0.015175280063676955
380.75230396511324,0.015324954750900193
381.3966814320993,0.015475292303808515
382.0749247889071,0.015634226425674202
382.7192097048028,0.015785832471310594
383.3634495389306,0.015938010099639497
384.0415480346528,0.016098780078660585
384.6856953473434,0.01625203189722446
385.32979759270165,0.016405757353966478
386.0077512737407,0.01656804852256615
386.6517610273004,0.016722640654259196
387.29572572796314,0.01687760229054347
387.97353464070693,0.01704108010678168
388.61740687919155,0.01719668876899609
389.2612340792148,0.017352557192584613
389.9388982700257,0.017516869102277743
390.58263303748026,0.017673154069705706
391.22632278089804,0.017829584133765775
391.9038422961203,0.017994361781636815
392.547439636568,0.01815096859882495
393.190991967389,0.01830760172358512
393.86836685335584,0.018472463514826308
394.51182681079445,0.01862902604119201
395.1552417730236,0.018785492867209087
395.832472076032,0.018950046876699236
396.47579469444827,0.0191061901600542
397.1190723320615,0.019262113527800637
397.7961580983974,0.01942596075002087
398.43934342176,0.019581304220610198
399.08248377871496,0.019736302467102597
399.7594250546499,0.01989904039552451
400.4024731269019,0.02005320136860205
401.04547624713814,0.02020689192778283
401.6884344200698,0.020360071305898092
402.3651839439881,0.020520715919442226
403.0080498714269,0.02067271920919516
403.6508708659494,0.020824088314410048
404.3274760070817,0.02098269550182275
404.9702047856299,0.02113263907686529
405.6128886456281,0.021281828746395844
406.2893494501732,0.02143801398891365
406.931941123712,0.021585536935444502
407.5744878930782,0.02173219102569238
408.2508044072092,0.021885585140362557
408.89325901960547,0.022030342685330117
409.53566874219905,0.02217412274508316
410.211841012082,0.022324376869404444
410.8541586071806,0.02246604517458842
411.4964313268356,0.02260663529277558
412.17245939861095,0.022753426041707762
412.81464002024586,0.022891707150551163
413.4567757807854,0.023028818945807873
414.13265970057546,0.02317185370603206
414.7747033925516,0.023306480609234646
415.41670223778056,0.0234398583267398
416.09244205168943,0.023578880651248583
416.73434885779716,0.023709622435559977
417.37621083150225,0.023839048115106263
418.0518065856122,0.023973843179694965
418.6935765496237,0.024100510222940144
419.33530169556616,0.024225808900849754
420.01075343593766,0.024356208982697886
420.6523866016105,0.024478658156776138
421.2939749635407,0.02459970306295968
421.9692827362196,0.02472559300005573
422.6107791472823,0.024843732842215912
423.2522307689287,0.024960450552139545
423.92739461993915,0.025081773140572965
424.5687543201093,0.0251955689514916
425.21006924518224,0.02530794445086332
425.8850892205264,0.02542470573470873
426.5263122535034,0.025534184559428783
427.1674905256914,0.025642266176667802
427.842366671357,0.025754540581952194
428.48345308081844,0.02585979602631397
429.124494743799,0.025963700184026335
429.79922710574465,0.026071635443730718
430.4401769353535,0.026172832274111508
431.0810820327788,0.02627274800544234
431.75567065695213,0.026376569816258334
432.39648395034965,0.026473948283865584
433.03725252585355,0.026570141452385926
433.71169745818406,0.02667015779556424
434.3523742589896,0.02676403761782726
434.9930063561915,0.02685685477011534
435.6673076425832,0.026953459817891542
436.30784799440517,0.027044243738301398
436.94834365689894,0.027134115506310095
437.6225013432377,0.02722779302170885
438.26290528966274,0.027315969855503636
438.90326456103503,0.027403413810926674
439.57727869318114,0.02749473993204064
440.2175462777777,0.02758088698830094
440.85776920158605,0.02766650983334061
441.53163982539263,0.02775615511344607
442.1717710917037,0.027840939864456498
442.81185771149467,0.02792543882282782
443.4518996894294,0.028009736575466373
444.1255798643506,0.028098350221563054
444.7655302236417,0.028182513470540495
445.40543595533745,0.02826675340390088
446.0789727285555,0.028355616997629784
446.718786870857,0.028440322957232988
447.35855639980946,0.028525412677331587
448.03194981711204,0.028615512823874367
448.67162778590864,0.028701728093902514
449.3112611555989,0.028788662377927526
449.9845112627445,0.02888107615530975
450.62405310151007,0.02896985186645999
451.26355035539746,0.029059708439750843
451.9366571981336,0.029155598302392047
452.5760629503129,0.02924806462603022
453.21542413184943,0.0293419980101476
453.8883877558983,0.029442604565688833
454.5276574649215,0.02953996311047702
455.16688261753006,0.02963919626680046
455.83970306859555,0.029745828633182585
456.47883677788195,0.029849342448487793
457.11792594496364,0.02995515593686581
457.79060326873514,0.03006917938542304
458.4296010216749,0.030180160294463583
459.0685542466272,0.030293878673889392
459.74108848876494,0.030416699277265334
460.3799503287337,0.03053649228066612
461.01876765492125,0.03065946750219813
461.69115886107465,0.030792513536772176
462.3298848314371,0.03092247806295122
462.96856630221373,0.031056069647510377
463.64081451800666,0.031200769552129283
464.27940466209475,0.03134225738791312
464.91795032079244,0.03148780924607903
465.5900555918379,0.03164556601526273
466.2285099529763,0.03179989583092691
466.86691984291247,0.03195870967088652
467.5388822147943,0.03213087166339544
468.1772008362859,0.032299300152605466
468.8154750007525,0.0324726055372386
469.48729451904,0.032660433811035276
470.1254774441695,0.032844123598513304
470.7636159264475,0.03303304485330738
471.4352926366919,0.03323767729485573
472.0733399087185,0.03343766192180721
472.7113427520708,0.033643182260103134
473.38287669979763,0.03386559495725081
474.0207883619769,0.034082741433731745
474.65865560964085,0.034305664851113075
475.33004684036496,0.034546631359825594
475.9678229359197,0.034781600969087986
476.60555463111814,0.03502251265861918
477.27680319033243,0.03528256202758211
477.9144437624782,0.035535770272774096
478.55203994841577,0.03579499651915157
479.2231458815877,0.036074371153484386
479.86065097351093,0.03634594794209592
480.4981116933777,0.036623516655379815
481.1690750459602,0.03692213130981868
481.8064447008437,0.03721188266464797
482.4437699978007,0.03750748590089334
483.11459081522844,0.03782488928049608
483.7518250762223,0.038132262034265334
484.3890149934232,0.03844522200765287
485.0261605714659,0.038763653855999114
485.69679223135245,0.03910461366620834
486.3338468119291,0.039433853870892516
486.9708570674702,0.03976812264904596
487.64134629787804,0.04012522362365634
488.2782655849405,0.04046924673977572
488.9151405610901,0.0408177138496225
489.5854874073884,0.04118907726983173
490.22227144403223,0.04154595151413905
490.85901118387847,0.04190654152762451
491.5292156914147,0.042289827536863826
492.1658645207208,0.04265718302408064
492.8024690673301,0.04302738363641669
493.4725312814371,0.043419795226186456
494.1090449464573,0.04379483172574661
494.74551434288514,0.044171705503071014
495.41543430887396,0.044570005309654756
496.0518128526528,0.04494951251183136
496.6881471419292,0.04532972143955242
497.3579249050963,0.045730262284554166
497.9941683706493,0.046110653333143334
498.630367595797,0.046490496788018504
499.3000032014097,0.04688926646491401
499.93611163174137,0.047266625080100745
500.5721758357504,0.04764209139320096
501.2416693290652,0.04803477170041364
501.87764276716916,0.04840491272003534
502.51357199301856,0.04877174398661578
503.18292341926644,0.04915378345493476
503.8187619081,0.049512326086385575
504.4545561987579,0.04986609533470842
505.12376560315533,0.05023279451917639
505.7594691856684,0.05057524704361078
506.39512858407033,0.050911446325727416
507.0641960118155,0.051258053959418265
507.69976473093993,0.05157990809440426
508.33528928001033,0.05189404553844581
509.0042147762797,0.05221586331124229
509.63964867492905,0.0525126959500037
510.27503841757425,0.05280039934793042
510.94382202752604,0.053092892611569305
511.5791211485921,0.05336047224848213
512.2143761277039,0.053617596377752784
512.8830178964745,0.05387650772209073
513.5181822828308,0.054110902575851806
514.1533025412755,0.05433363719728983
514.8218025139868,0.05455509962154501
515.4568322084924,0.05475278430582256
516.0918177891217,0.054937759667931255
516.7601760108737,0.0551184060083416
517.3950710563695,0.05527636359511863
518.029922002017,0.055420750324997714
518.6981385178879,0.055557815712910366
519.3328989571928,0.055673632198321124
519.9676153106775,0.05577523268037961
520.6356901657309,0.05586664709823109
521.2703160416495,0.0559385956166381
521.9048978457649,0.05599592435090341
522.5728310850463,0.05604039282214972
523.2073224403612,0.05606750545186158
523.8417697378827,0.05607985642995629
524.5095614064157,0.05607692500317719
525.1439182838949,0.05605905064305912
525.778231117587,0.05602655045321025
526.4124999120795,0.05597953128798174
527.0801037027704,0.055914504414726195
527.7142821153757,0.05583815054153721
528.3484165027767,0.05574779823333006
529.0158788274384,0.05563782610017823
529.6499228616813,0.055519510653210015
530.2839228847115,0.05538801319872687
530.9512437883131,0.05523571929287879
531.5851534868925,0.05507823908774635
532.2190191882546,0.05490868975472497
532.8861987157288,0.05471764970866716
533.5199741213473,0.05452470411278829
534.1537055437184,0.05432109562048806
534.8207437399906,0.05409582730621241
535.4543848953108,0.053872005393868425
536.0879820813607,0.05363921385229156
536.7548789913271,0.053385157108379856
537.3883859390007,0.05313591526325902
538.0218489313738,0.05287967472588122
538.6886045999308,0.05260316121670783
539.3219773825913,0.05233479117965591
539.9553062239138,0.052061658243426866
540.6219206959177,0.05176987013247427
541.2551593561839,0.05148945544556944
541.8883540890674,0.05120676096316971
542.5548274093708,0.05090767423506353
543.1879319898399,0.050623029993058385
543.8209926568743,0.05033881160412873
544.4873248703007,0.050041116010125127
545.1202954135515,0.04976070288290924
545.7532220573121,0.04948360788963268
546.4194132086741,0.04919659089366386
547.0522497572674,0.04892938989782584
547.6850424203112,0.04866853349168871
548.3510925543924,0.04840191090828085
548.9837951508744,0.04815724113916569
549.6164538757366,0.04792200103077704
550.2823630373132,0.047685673379741826
550.9149317242081,0.04747293207189175
551.5474565534096,0.047272658532214414
552.2132247872287,0.0470763710515106
552.8456596070464,0.04690467552124822
553.4780505830931,0.046748297412388604
554.1436779338874,0.046601185032453626
554.7759789291158,0.046478901070905604
555.4082360944885,0.04637441541098165
556.0737226069723,0.04628442360482987
556.7058898200812,0.04621857631520195
557.3380132172497,0.04617242267422722
558.0033589361192,0.04614561213555023
558.6353924095638,0.04614119381819782
559.2673820809723,0.04615753574140597
559.9325870509019,0.04619730316268518
560.5644868271193,0.046256517936484574
561.1963428151976,0.046336480309388056
561.8614070808471,0.04644275700821765
562.493173202256,0.04656427066664804
563.124895549412,0.0467052109868308
563.7898191554195,0.04687373129497725
564.4214516644206,0.04705202245072762
565.053040413055,0.04724693970348943
565.6845854058702,0.04745722792024486
566.3493223430087,0.047693623390481235
566.9807775354966,0.047930823494852524
567.6121889860442,0.04817853722939997
568.2767853673577,0.04844854030300418
568.9081070460561,0.048711674688415335
569.5393849966895,0.04897902557781613
570.2038408667613,0.049262434963381216
570.8350290740127,0.04953100346717146
571.4661735670597,0.049796326107382924
572.1304889704443,0.05006921626947354
572.7615437485692,0.05031957594931615
573.3925548263542,0.05055850015618703
574.0567298075875,0.050794625556939255
574.6876511988885,0.05100147749755754
575.3185289037065,0.05118855227071539
575.9825635073103,0.05136118918065126
576.6133515540787,0.05149943612725992
577.2440959282103,0.051610072475354124
577.9079901986806,0.051694132005497107
578.5386449431826,0.0517409253870613
579.1692560288902,0.05175345610217739
579.8330100107123,0.051727636934512156
580.4635314951993,0.05166437880638135
581.0940093347308,0.05156199044203685
581.7576230723644,0.05141070712981812
582.3880113390696,0.051224754597094246
583.0183559746511,0.05099704245428999
583.6818295125377,0.0507118756590344
584.31208460368,0.050397719937461116
584.9422960775155,0.05004165555901243
585.6056294600858,0.04962212600755133
586.2357514178584,0.049181883995576575
586.8658297721449,0.048702061933450995
587.5290230438004,0.04815562206735435
588.1590119103821,0.0475987743856504
588.7889571872984,0.047006907385689085
589.452010392426,0.046348156912162604
590.081866209981,0.045690574905599315
590.7116784516729,0.045004314735456914
591.3745916346415,0.04425355707177908
592.0043144453157,0.043515961385679244
592.6339936939257,0.04275721555989749
593.2967668990932,0.041938560379860906
593.9263567450034,0.04114462660757672
594.5559030426521,0.040337602138513735
595.2185363143399,0.03947686919882856
595.8479932376067,0.03865122943541523
596.4774066263963,0.03782045394505368
597.139900008915,0.03694313831461952
597.7692240516226,0.03610951798536378
598.3985045736445,0.03527806590299301
599.0608581112901,0.0344075877482196
599.6900493155117,0.03358727068897796
600.3191970128246,0.03277536631044764
600.9814107498714,0.031931760889830046
601.6104691576656,0.03114250510931522
602.2394840723209,0.03036659926275383
602.9015580530286,0.0295657208935826
603.5304837064286,0.028821168688848837
604.1593658804595,0.028093507733429605
604.8213001490622,0.027346741853346842
605.4500930900904,0.026656296097078026
606.0788425655082,0.02598493506646066
606.7075485798232,0.025333107428832262
607.3692974368823,0.024668433110099624
607.997914255684,0.02405759836455074
608.626487627138,0.02346694504615556
609.2880968749887,0.022867009656184593
609.9165810791528,0.022317693966526973
610.5450218497172,0.021788300364418006
611.2064915325354,0.02125229987349168
611.8348431640225,0.020762972640218594
612.4631513756503,0.02029264078347281
613.1244815375903,0.01981762504567474
613.7527006383461,0.019384956866080428
614.3808763329762,0.018969917035789267
615.0420670181775,0.018551517190475795
615.6701536301225,0.018171044095444015
616.2981968496752,0.01780658795740332
616.9592481022555,0.017439644994745065
617.5872022673029,0.017106326506665548
618.2151130536804,0.016787324987074786
618.8760249177394,0.01646639009982874
619.5038466777769,0.01617504148761974
620.1316250728596,0.01589633518971231
620.7923975924859,0.015616036312776353
621.420086989383,0.015361635834514253
622.0477330350404,0.015118303966391326
622.7083662542937,0.014873589551170777
623.3359233299052,0.014651474930260842
623.9634370679887,0.014438999923500328
624.6239310309138,0.01422528046796252
625.2513558270766,0.01403125577057755
625.8787372994157,0.013845605819130524
626.5390920500431,0.01365881715372864
627.1663846085794,0.013489192984153473
627.7936338569816,0.013326845154451431
628.4538494393164,0.013163456697733044
629.0810098020265,0.013015044902305968
629.708126868296,0.012872968962201439
630.3682033263249,0.012729956863681995
630.995231534991,0.012600037330597494
631.6222164609026,0.012475656518963426
632.2821538385979,0.012350457257728256
632.9090499349913,0.01223673017129086
633.5359027623053,0.012127870897337115
634.1957011036211,0.012018326526243978
634.8224651294877,0.011918859410244932
635.4491858999463,0.011823698027901801
636.1088452488184,0.011728000440570206
636.7354772458893,0.011641175950981133
637.3620660012202,0.011558187636379344
638.021586401559,0.011474826239110895
638.6480864115474,0.011399294094231346
639.2745431934563,0.01132720654417119
639.9339246891614,0.011254921556781037
640.5602927537657,0.011189556190267801
641.1866176039475,0.011127309283602579
