Raman Shift (cm-1),Fitted Intensity
307.71441355443676,0.03247983794096024
308.36391220437145,0.03271163690336466
309.01336522421843,0.03294481414884601
309.6969506915775,0.03319175295975249
310.34631006473137,0.03342775940442514
310.99562382247314,0.03366514398319691
311.6790627139999,0.03391651101503438
312.32828285516734,0.034156723372027825
312.9774573955983,0.0343983126204275
313.6607497584264,0.034654103876081
314.30983071238734,0.03489851720333864
314.9588660802692,0.03514430505281763
315.64201196152135,0.03540451291529743
316.29095377302656,0.035653118797476305
316.93985001311376,0.03590309567228172
317.58870068658143,0.03615444212522109
318.27165217367656,0.03642049523922143
318.920409330698,0.0366746479500712
319.5691209357501,0.03693016511408201
320.25192605085977,0.0372006024697701
320.9005441695299,0.0374589141027986
321.54911675086987,0.03771858381882736
322.2317755410477,0.03799338494220679
322.8802546660554,0.038255834742340435
323.52868826836857,0.03851963497056734
324.2112007806463,0.038798775259086614
324.8595409566624,0.039065338506971706
325.5078356246195,0.039333243201416374
326.19020190600713,0.03961669378934956
326.8384031776877,0.039887341670859375
327.486558955934,0.040159320646229874
328.1687790534197,0.0404470482615321
328.81684146540283,0.04072174772881684
329.4648583985654,0.04099776651855778
330.14693235912273,0.04128973333006212
330.7948559560209,0.041568446953040204
331.4427340887123,0.041848466657447576
332.12466195928937,0.04214463011118685
332.7724467857006,0.04242731591832137
333.4201861625079,0.04271129304153358
334.10196799003825,0.04301160568493561
334.74961409053867,0.04329821699205666
335.3972147560344,0.04358610326669658
336.07885058742613,0.0438905125593105
336.7263580065737,0.0441809977852225
337.3738200053085,0.044472739983385474
338.05530988745886,0.04478118809279007
338.70267866978975,0.045075490560343066
339.3500020462998,0.04537103028962184
340.03134602607315,0.045683453871085876
340.67857621611256,0.04598151159238071
341.3257610149085,0.046280785075567286
342.00695913915115,0.04659711503407429
342.6540507814025,0.04689886047843429
343.30109704698043,0.04720179831556646
343.98214936252407,0.04752195954876416
344.62910250146524,0.04782731939214414
345.2760102782995,0.04813384630354346
345.95691683195764,0.04845775742422555
346.60373151205204,0.048766652278750586
347.25050084460236,0.04907668682777237
347.93126168316303,0.049404259864551894
348.57793794885583,0.049716603986920925
349.2245688815601,0.05003005828117671
349.9051840517932,0.05036119835610176
350.55172194750776,0.05067689933370201
351.1982145247821,0.050993678703642326
351.8786840734356,0.05132828368560607
352.52508364358073,0.05164724209931214
353.17143790982664,0.051967244753189736
353.851761883634,0.052305204886174045
354.4980231725931,0.05262731394895848
355.1442391721903,0.05295043060336838
355.8244176178596,0.05329162810875116
356.47054067000136,0.053616773279487794
357.116618447315,0.05394288676494558
357.796651411536,0.05428719541740484
358.4426362712111,0.054615253989487106
359.0885758705808,0.0549442388307727
359.73447021440006,0.05527413554088118
360.4143101115624,0.055622364172387334
361.06011157731336,0.05595408614378105
361.7058678020294,0.05628667403220724
362.3855623263371,0.05663768473334768
363.03122570277264,0.05697200038927993
363.6768438526851,0.05730713288409212
364.3563930507662,0.05766076793207302
365.00191838217506,0.05799752411426059
365.64739850156184,0.05833504476449959
366.3268024200188,0.058691135855376345
366.97218975066426,0.059030169178086976
367.6175318837886,0.059369911132353445
368.29679056920577,0.05972827882525799
368.94203994333657,0.060069415141078115
369.58724413443633,0.06041120060754164
370.26635763338345,0.06077165375047464
370.9114690952265,0.06111470759971021
371.5565353885286,0.06145834729099754
372.2355037475427,0.061820682432110315
372.88047734131396,0.06216545647989323
373.52540578101616,0.0625107490471976
374.20422904662337,0.06287474983655743
374.8490648165134,0.0632210343027002
375.49385544680626,0.06356776576457245
376.1725336655036,0.06393320235247488
376.81723165568474,0.06428077444029019
377.4618845207333,0.06462871761265426
378.14041773901045,0.06499534605189455
378.78497799363686,0.06534396938339493
379.429493137588,0.06569288331868267
380.10788140190925,0.0660604449794957
380.75230396511324,0.06640986904575454
381.3966814320993,0.06675949849039023
382.0749247889071,0.06712771949833841
382.7192097048028,0.0674776791352535
383.3634495389306,0.06782775401621399
384.0415480346528,0.06819634472485955
384.6856953473434,0.06854655962610144
385.32979759270165,0.06889679457888077
386.0077512737407,0.06926544909076673
386.6517610273004,0.06961562337131134
387.29572572796314,0.069965717323242
387.97353464070693,0.07033411307450128
388.61740687919155,0.07068393489988405
389.2612340792148,0.07103357072448337
389.9388982700257,0.0714013681501598
390.58263303748026,0.07175050944826794
391.22632278089804,0.072099353708017
391.9038422961203,0.07246619600705191
392.547439636568,0.07281431228101298
393.190991967389,0.07316201507769485
393.86836685335584,0.07352752809830401
394.51182681079445,0.0738742583607455
395.1552417730236,0.07422045331415822
395.832472076032,0.07458424558205003
396.47579469444827,0.07492921243261161
397.1190723320615,0.07527351680999511
397.7961580983974,0.07563517972355613
398.43934342176,0.07597798959299011
399.08248377871496,0.07632000461301489
399.7594250546499,0.07667911283093254
400.4024731269019,0.07701935641644875
401.04547624713814,0.07735866775275535
401.6884344200698,0.07769700077961325
402.3651839439881,0.07805203271832735
403.0080498714269,0.0783882112285685
403.6508708659494,0.078723267784386
404.3274760070817,0.07907469403283965
404.9702047856299,0.07940729673975447
405.6128886456281,0.07973862957473803
406.2893494501732,0.0800859748879228
406.931941123712,0.08041454623912199
407.5744878930782,0.08074169600612972
408.2508044072092,0.08108447295812232
408.89325901960547,0.08140854639095678
409.53566874219905,0.08173104331587508
410.211841012082,0.08206875417512942
410.8541586071806,0.08238785401208054
411.4964313268356,0.08270521990279721
412.17245939861095,0.08303735887229209
412.81464002024586,0.08335100257083998
413.4567757807854,0.08366275318808883
414.13265970057546,0.08398880903410927
414.7747033925516,0.08429650981279968
415.41670223778056,0.08460215762373335
416.09244205168943,0.08492161671421103
416.73434885779716,0.08522288657378876
417.37621083150225,0.0855219439060214
418.0518065856122,0.08583429367580964
418.6935765496237,0.08612864683059412
419.33530169556616,0.08642062944055721
420.01075343593766,0.08672536229668072
420.6523866016105,0.0870123190270343
421.2939749635407,0.08729675009191636
421.9692827362196,0.08759336776675053
422.6107791472823,0.08787245869841087
423.2522307689287,0.08814887323564172
423.92739461993915,0.08843689159019076
424.5687543201093,0.08870766240058077
425.21006924518224,0.08897561211298434
425.8850892205264,0.08925456638606719
426.5263122535034,0.08951658293141836
427.1674905256914,0.08977564146974829
427.842366671357,0.09004509196203005
428.48345308081844,0.09029794581255768
429.124494743799,0.09054771444041561
429.79922710574465,0.09080725261503958
430.4401769353535,0.09105056697852756
431.0810820327788,0.09129068061773886
431.75567065695213,0.0915399355920819
432.39648395034965,0.09177337159934672
433.03725252585355,0.09200350522708496
433.71169745818406,0.09224215062303338
434.3523742589896,0.09246541394216139
434.9930063561915,0.09268528930465741
435.6673076425832,0.09291305041830296
436.30784799440517,0.09312589815860885
436.94834365689894,0.09333529076066563
437.6225013432377,0.09355195200679883
438.26290528966274,0.09375419986865381
438.90326456103503,0.0939529461939282
439.57727869318114,0.09415835877682811
440.2175462777777,0.09434988840055378
440.85776920158605,0.09453789331532966
441.53163982539263,0.09473198307601155
442.1717710917037,0.09491274954275633
442.81185771149467,0.09508999383686301
443.4518996894294,0.09526372280243398
444.1255798643506,0.09544280867046626
444.7655302236417,0.09560935669428385
445.40543595533745,0.09577242993818377
446.0789727285555,0.0959403541318701
446.718786870857,0.09609636150006294
447.35855639980946,0.09624896621851
448.03194981711204,0.09640596082301534
448.67162778590864,0.09655168217603416
449.3112611555989,0.09669410714892404
449.9845112627445,0.09684051395414803
450.62405310151007,0.0969763108009681
451.26355035539746,0.09710895427391399
451.9366571981336,0.09724523312448975
452.5760629503129,0.09737158183818745
453.21542413184943,0.09749495959461218
453.8883877558983,0.09762169698905945
454.5276574649215,0.09773919709514346
455.16688261753006,0.09785395088580555
455.83970306859555,0.09797186903380792
456.47883677788195,0.09808125202395947
457.11792594496364,0.09818815862294246
457.79060326873514,0.09829812528660464
458.4296010216749,0.09840026431124568
459.0685542466272,0.09850024559778081
459.74108848876494,0.0986032851903492
460.3799503287337,0.0986992061334667
461.01876765492125,0.09879334075814872
461.69115886107465,0.09889064735062877
462.3298848314371,0.09898154196645849
462.96856630221373,0.09907107934346703
463.64081451800666,0.0991640324280941
464.27940466209475,0.09925127441168559
464.91795032079244,0.0993376519725558
465.5900555918379,0.09942783603514374
466.2285099529763,0.09951300108752309
466.86691984291247,0.09959786591304227
467.5388822147943,0.09968709504402566
468.1772008362859,0.09977198614468728
468.8154750007525,0.09985722222182916
469.48729451904,0.09994757110331186
470.1254774441695,0.10003425027008127
470.7636159264475,0.10012201264730423
471.4352926366919,0.10021585522893507
472.0733399087185,0.10030668296413804
472.7113427520708,0.10039943993252029
473.38287669979763,0.10049949687614124
474.0207883619769,0.1005971801922166
474.65865560964085,0.10069776422268474
475.33004684036496,0.10080715966914325
475.9678229359197,0.10091480897467081
476.60555463111814,0.1010264764121477
477.27680319033243,0.10114880372099117
477.9144437624782,0.10126999785574474
478.55203994841577,0.10139649624187794
479.2231458815877,0.10153589101417507
479.86065097351093,0.10167474830194875
480.4981116933777,0.1018203886357656
481.1690750459602,0.10198160553463305
481.8064447008437,0.1021428568787261
482.4437699978007,0.10231258615467347
483.11459081522844,0.10250107384129684
483.7518250762223,0.10269013169947683
484.3890149934232,0.10288959879524134
485.0261605714659,0.10310016181320898
485.69679223135245,0.10333457957504578
486.3338468119291,0.10357018521305483
486.9708570674702,0.10381915188432962
487.64134629787804,0.10409653328999369
488.2782655849405,0.10437545269618627
488.9151405610901,0.10467025050057488
489.5854874073884,0.10499868260997013
490.22227144403223,0.10532884807162009
490.85901118387847,0.10567764489293476
491.5292156914147,0.10606596936975748
492.1658645207208,0.106455999640169
492.8024690673301,0.1068676131001361
493.4725312814371,0.10732530780085595
494.1090449464573,0.10778437268366088
494.74551434288514,0.10826811146298379
495.41543430887396,0.10880509746259236
496.0518128526528,0.10934270927062194
496.6881471419292,0.10990813966431827
497.3579249050963,0.11053450852343875
497.9941683706493,0.11116023750381394
498.630367595797,0.11181687446207599
499.3000032014097,0.11254253744801261
499.93611163174137,0.11326565529765394
500.5721758357504,0.11402258458135801
501.2416693290652,0.11485685354330934
501.87764276716916,0.11568591676168606
502.51357199301856,0.11655136229429511
503.18292341926644,0.1175024792951457
503.8187619081,0.11844487044949953
504.4545561987579,0.11942572627461231
505.12376560315533,0.12050036322435351
505.7594691856684,0.12156181033833158
506.39512858407033,0.12266315653540648
507.0641960118155,0.12386590312449634
507.69976473093993,0.12504999132733802
508.33528928001033,0.12627460342287944
509.0042147762797,0.12760744665624263
509.63964867492905,0.1289151169449762
510.27503841757425,0.13026295358152784
510.94382202752604,0.13172471961487744
511.5791211485921,0.13315371193718292
512.2143761277039,0.13462132107740427
512.8830178964745,0.1362069957085136
513.5181822828308,0.13775113499362182
514.1533025412755,0.13933085422914457
514.8218025139868,0.14103062504659136
515.4568322084924,0.14267877633997786
516.0918177891217,0.14435753093693124
516.7601760108737,0.1461553240737704
517.3950710563695,0.1478897884613977
518.029922002017,0.14964725679925184
518.6981385178879,0.1515185398587533
519.3328989571928,0.1533127088006117
519.9676153106775,0.15511873403973395
520.6356901657309,0.15702756168565887
521.2703160416495,0.15884295033347212
521.9048978457649,0.16065450851390964
522.5728310850463,0.1625504029121699
523.2073224403612,0.1643339376850798
523.8417697378827,0.16609289802446497
524.5095614064157,0.16790930256066489
525.1439182838949,0.16959295339492414
525.778231117587,0.1712271361995774
526.4124999120795,0.17280327491162217
527.0801037027704,0.17439031294170293
527.7142821153757,0.17582096229980493
528.3484165027767,0.17716871062359707
529.0158788274384,0.17849020569937737
529.6499228616813,0.1796470877630905
530.2839228847115,0.18070312913036476
530.9512437883131,0.18170212369990685
531.5851534868925,0.1825422321552865
532.2190191882546,0.18327588934111932
532.8861987157288,0.1839345468814687
533.5199741213473,0.1844551965111441
534.1537055437184,0.18487761133217823
534.8207437399906,0.185221895734375
535.4543848953108,0.18546007112633223
536.0879820813607,0.18561862362298018
536.7548789913271,0.18570755967904523
537.3883859390007,0.18572586914503783
538.0218489313738,0.18568738594706877
538.6886045999308,0.18559363616375887
539.3219773825913,0.1854613644891607
539.9553062239138,0.1852937266142674
540.6219206959177,0.18508575634175717
541.2551593561839,0.18486401761305427
541.8883540890674,0.1846237442095849
542.5548274093708,0.1843555480953458
543.1879319898399,0.1840901440655692
543.8209926568743,0.18381761529927787
544.4873248703007,0.18352593187174804
545.1202954135515,0.18324648539303914
545.7532220573121,0.18296645179591284
546.4194132086741,0.18267241462045017
547.0522497572674,0.1823946796626603
547.6850424203112,0.18211903040847097
548.3510925543924,0.18183134648005272
548.9837951508744,0.18156031026094874
549.6164538757366,0.1812911367630741
550.2823630373132,0.18100918377519143
550.9149317242081,0.1807418392298597
551.5474565534096,0.18047401971434968
552.2132247872287,0.1801903600729629
552.8456596070464,0.17991790794861623
553.4780505830931,0.17964114634492104
554.1436779338874,0.17934352186696378
554.7759789291158,0.17905314710567174
555.4082360944885,0.17875365814426097
556.0737226069723,0.17842668923463365
556.7058898200812,0.1781031239822128
557.3380132172497,0.17776516178208818
558.0033589361192,0.17739193161631314
558.6353924095638,0.1770189441075475
559.2673820809723,0.1766262787566775
559.9325870509019,0.176189873876669
560.5644868271193,0.17575171518427035
561.1963428151976,0.17528905651202006
561.8614070808471,0.17477403098422917
562.493173202256,0.17425678201408557
563.124895549412,0.1737110716205163
563.7898191554195,0.17310473377501193
564.4214516644206,0.17249744464511263
565.053040413055,0.17185890167858248
565.6845854058702,0.17118847918114313
566.3493223430087,0.17044780947815774
566.9807775354966,0.16971062410621807
567.6121889860442,0.1689405786206996
568.2767853673577,0.16809448804637325
568.9081070460561,0.1672571002682557
569.5393849966895,0.16638725345090724
570.2038408667613,0.165437015290304
570.8350290740127,0.16450197934754746
571.4661735670597,0.16353614158295865
572.1304889704443,0.1624870540787186
572.7615437485692,0.16146055080247032
573.3925548263542,0.16040594005450035
574.0567298075875,0.1592666276501806
574.6876511988885,0.15815773194800437
575.3185289037065,0.15702418825822648
575.9825635073103,0.15580573256804192
576.6133515540787,0.15462556175080105
577.2440959282103,0.15342468317623517
577.9079901986806,0.15213971324170883
578.5386449431826,0.15090057404888288
579.1692560288902,0.14964488469517873
579.8330100107123,0.14830673335872221
580.4635314951993,0.1470213586349024
581.0940093347308,0.14572358853842504
581.7576230723644,0.14434558620007454
582.3880113390696,0.14302651668785438
583.0183559746511,0.1416990372297748
583.6818295125377,0.14029397670042512
584.31208460368,0.13895310899696245
584.9422960775155,0.13760753503767156
585.6056294600858,0.13618730966800927
586.2357514178584,0.13483560438591607
586.8658297721449,0.1334825504409069
587.5290230438004,0.1320579461200903
588.1590119103821,0.1307052731725602
588.7889571872984,0.12935423705681628
589.452010392426,0.1279348473719679
590.081866209981,0.12658993750470104
590.7116784516729,0.1252492796855529
591.3745916346415,0.12384351058844835
592.0043144453157,0.12251398156776615
592.6339936939257,0.12119096948445568
593.2967668990932,0.11980610243756283
593.9263567450034,0.11849853198890702
594.5559030426521,0.11719942318255319
595.2185363143399,0.11584171130140695
595.8479932376067,0.11456173462652183
596.4774066263963,0.11329187852940167
597.139900008915,0.11196665668354826
597.7692240516226,0.11071907249127987
598.3985045736445,0.10948301670711112
599.0608581112901,0.10819481261436234
599.6900493155117,0.1069836870872995
600.3191970128246,0.10578527916108513
600.9814107498714,0.10453791756702108
601.6104691576656,0.10336668010933753
602.2394840723209,0.10220915982735485
602.9015580530286,0.10100585570673752
603.5304837064286,0.09987738358890096
604.1593658804595,0.09876346376126754
604.8213001490622,0.0976069031736238
605.4500930900904,0.09652359442015085
606.0788425655082,0.09545553002889061
606.7075485798232,0.09440290874690019
607.3692974368823,0.09331177424700486
607.997914255684,0.09229142099913795
608.626487627138,0.09128704052804046
609.2880968749887,0.09024721859560852
609.9165810791528,0.08927608250876086
610.5450218497172,0.08832134383830519
611.2064915325354,0.08733420049342891
611.8348431640225,0.08641348033802906
612.4631513756503,0.0855094898642206
613.1244815375903,0.08457609413101827
613.7527006383461,0.08370671849862014
614.3808763329762,0.08285432368503606
615.0420670181775,0.08197548378507995
615.6701536301225,0.08115814435062307
616.2981968496752,0.08035796603931811
616.9592481022555,0.07953426251622331
617.5872022673029,0.07876944478634423
618.2151130536804,0.0780219073530241
618.8760249177394,0.0772537242790837
619.5038466777769,0.07654173681849348
620.1316250728596,0.07584709706586103
620.7923975924859,0.07513465216752196
621.420086989383,0.0744756550016876
622.0477330350404,0.07383403039792154
622.7083662542937,0.0731774046438812
623.3359233299052,0.07257143726786497
623.9634370679887,0.07198283387939708
624.6239310309138,0.07138200081594397
625.2513558270766,0.07082901000545481
625.8787372994157,0.07029335025181409
626.5390920500431,0.06974820515087153
627.1663846085794,0.06924807257637197
627.7936338569816,0.06876522275250137
628.4538494393164,0.06827561145951208
629.0810098020265,0.06782818094779831
629.708126868296,0.06739797831511192
630.3682033263249,0.06696372554519923
630.995231534991,0.06656882971313745
631.6222164609026,0.06619110885234421
632.2821538385979,0.06581204558116127
632.9090499349913,0.0654695314802674
633.5359027623053,0.06514414952313026
634.1957011036211,0.06482013904973945
634.8224651294877,0.06452989240444783
635.4491858999463,0.06425675271502489
636.1088452488184,0.06398771493438711
636.7354772458893,0.06374968252763703
637.3620660012202,0.06352875638233138
638.021586401559,0.06331468979101745
638.6480864115474,0.06312889954509109
639.2745431934563,0.0629602453621364
639.9339246891614,0.06280124632946119
640.5602927537657,0.0626678246447512
641.1866176039475,0.06255160433468643
641.8458602388964,0.062447883199918626
642.4720963997934,0.06236706914712445
643.0982893599139,0.06230356119405422
643.7573931779698,0.0622554547961599
644.3834974768215,0.06222761080605511
645.0095585885429,0.062217219742887506
645.6685236335434,0.0622252000504589
646.2944961119902,0.06225081880797556
646.9204254169454,0.062294080815622786
