Raman Shift (cm-1),Fitted Intensity
307.71441355443676,0.03484887691158231
308.36391220437145,0.03509550963407439
309.01336522421843,0.03534347704668091
309.6969506915775,0.03560593524188895
310.34631006473137,0.03585663631932414
310.99562382247314,0.036108666002960886
311.6790627139999,0.03637539325109499
312.32828285516734,0.03663014282683534
312.9774573955983,0.03688621366429328
313.6607497584264,0.03715718636037487
314.30983071238734,0.03741596068814339
314.9588660802692,0.037676047631530686
315.64201196152135,0.03795123798781677
316.29095377302656,0.03821400930387736
316.93985001311376,0.03847808324426177
317.58870068658143,0.03874345623569114
318.27165217367656,0.03902419553733577
318.920409330698,0.03929222316587942
319.5691209357501,0.03956153799593509
320.25192605085977,0.03984641328100883
320.9005441695299,0.0401183569405248
321.54911675086987,0.04039157449349814
322.2317755410477,0.040680542992664236
322.8802546660554,0.0409563605184113
323.52868826836857,0.04123343711634793
324.2112007806463,0.04152645119735526
324.8595409566624,0.041806095745867224
325.5078356246195,0.042086982973198774
326.19020190600713,0.04238398995159705
326.8384031776877,0.04266740981626779
327.486558955934,0.04295205433076922
328.1687790534197,0.04325299626577311
328.81684146540283,0.043540134677885874
329.4648583985654,0.04382847800665243
330.14693235912273,0.044133291480758785
330.7948559560209,0.044424086394624744
331.4427340887123,0.04471606471371732
332.12466195928937,0.045024680594647586
332.7724467857006,0.0453190644555156
333.4201861625079,0.04561460835192208
334.10196799003825,0.04592695153549186
334.74961409053867,0.04622485102887379
335.3972147560344,0.04652388524347009
336.07885058742613,0.0468398743759749
336.7263580065737,0.04714121015709019
337.3738200053085,0.04744365330729009
338.05530988745886,0.047763200486087704
338.70267866978975,0.04806788688816822
339.3500020462998,0.04837365116905137
340.03134602607315,0.04869666162005439
340.67857621611256,0.049004606340358525
341.3257610149085,0.049313597203137556
342.00695913915115,0.049639968934111434
342.6540507814025,0.04995107269659586
343.30109704698043,0.050263188503457616
343.98214936252407,0.050592811932126475
344.62910250146524,0.05090696812592426
345.2760102782995,0.05122209978042659
345.95691683195764,0.05155485733662389
346.60373151205204,0.051871951629685234
347.25050084460236,0.05218998218216108
347.93126168316303,0.052525747883528935
348.57793794885583,0.052845657811035965
349.2245688815601,0.05316646203871802
349.9051840517932,0.05350510103979564
350.55172194750776,0.05382769556731768
351.1982145247821,0.05415113952927759
351.8786840734356,0.05449250764419651
352.52508364358073,0.05481764670595307
353.17143790982664,0.05514358727336541
353.851761883634,0.055487530472867475
354.4980231725931,0.05581506448592386
355.1442391721903,0.05614334884865681
355.8244176178596,0.056489702732685214
356.47054067000136,0.056819472088499766
357.116618447315,0.057149937239648695
357.796651411536,0.05749852648744454
358.4426362712111,0.05783036102279632
359.0885758705808,0.058162833223422916
359.73447021440006,0.058495923238520306
360.4143101115624,0.05884718947387003
361.06011157731336,0.059181483701021165
361.7058678020294,0.059516332582961816
362.3855623263371,0.05986938060357181
363.03122570277264,0.06020529998548664
363.6768438526851,0.06054170685670138
364.3563930507662,0.0608963208171215
365.00191838217506,0.06123365606055098
365.64739850156184,0.061571407433636496
366.3268024200188,0.061927358011463325
366.97218975066426,0.062265886827076615
367.6175318837886,0.06260475603108807
368.29679056920577,0.06296179982490456
368.94203994333657,0.06330128635798234
369.58724413443633,0.06364103297261918
370.26635763338345,0.06399891191124484
370.9114690952265,0.06433910618610564
371.5565353885286,0.06467947549272264
372.2355037475427,0.06503791626563142
372.88047734131396,0.06537855365365661
373.52540578101616,0.06571927611338667
374.20422904662337,0.06607798963370187
374.8490648165134,0.06641879035624369
375.49385544680626,0.06675958112707088
376.1725336655036,0.06711826204005594
376.81723165568474,0.06745893071908428
377.4618845207333,0.06779948922516575
378.14041773901045,0.06815781547685014
378.78497799363686,0.06849804074771956
379.429493137588,0.0688380503159044
380.10788140190925,0.0691956827980607
380.75230396511324,0.06953513700037511
381.3966814320993,0.06987426458039536
382.0749247889071,0.07023084686981
382.7192097048028,0.07056918583392449
383.3634495389306,0.07090708182028502
384.0415480346528,0.07126224003182492
384.6856953473434,0.07159910298001186
385.32979759270165,0.07193540115509432
386.0077512737407,0.0722887439295734
386.6517610273004,0.07262375351225302
387.29572572796314,0.0729580711314582
387.97353464070693,0.07330918978069031
388.61740687919155,0.07364195226938992
389.2612340792148,0.07397389031030722
389.9388982700257,0.07432235914282449
390.58263303748026,0.07465246480248232
391.22632278089804,0.07498160840098944
391.9038422961203,0.0753269852528027
392.547439636568,0.0756540089167482
393.190991967389,0.07597992801353817
393.86836685335584,0.07632175500878852
394.51182681079445,0.07664525688010164
395.1552417730236,0.07696750710136352
395.832472076032,0.07730531166778407
396.47579469444827,0.07762483837064928
397.1190723320615,0.07794296216634654
397.7961580983974,0.07827625833009198
398.43934342176,0.07859134423416454
399.08248377871496,0.07890487229668496
399.7594250546499,0.0792331622800163
400.4024731269019,0.07954333111971802
401.04547624713814,0.07985178410427446
401.6884344200698,0.08015846891688114
402.3651839439881,0.08047932705693665
403.0080498714269,0.08078221762317121
403.6508708659494,0.08108317902445372
404.3274760070817,0.08139783803171909
404.9702047856299,0.08169467322333296
405.6128886456281,0.08198941699372474
406.2893494501732,0.08229735560849462
406.931941123712,0.08258763958440292
407.5744878930782,0.08287566959242731
408.2508044072092,0.08317636563634502
408.89325901960547,0.08345960276288074
409.53566874219905,0.08374042417690158
410.211841012082,0.08403335806333138
410.8541586071806,0.08430905637232822
411.4964313268356,0.08458217923868239
412.17245939861095,0.08486683786857444
412.81464002024586,0.0851345128809362
413.4567757807854,0.0853994560661805
414.13265970057546,0.08567533710504836
414.7747033925516,0.08593451601360874
415.41670223778056,0.08619081150271503
416.09244205168943,0.08645742802795173
416.73434885779716,0.08670765422733055
417.37621083150225,0.08695485176345322
418.0518065856122,0.0872117372645879
418.6935765496237,0.08745257520934338
419.33530169556616,0.08769024725437798
420.01075343593766,0.08793696096215214
420.6523866016105,0.088168001328194
421.2939749635407,0.08839574831704594
421.9692827362196,0.08863188083061886
422.6107791472823,0.08885274594870031
423.2522307689287,0.08907020180416558
423.92739461993915,0.08929538097963381
424.5687543201093,0.08950573050417043
425.21006924518224,0.08971256837400933
425.8850892205264,0.08992646543211166
426.5263122535034,0.09012600220380416
427.1674905256914,0.0903219403772021
427.842366671357,0.0905242761839215
428.48345308081844,0.09071275224121955
429.124494743799,0.09089756019887879
429.79922710574465,0.09108811167013087
430.4401769353535,0.09126533436280854
431.0810820327788,0.09143883891381223
431.75567065695213,0.09161744549508731
432.39648395034965,0.09178328365368232
433.03725252585355,0.09194537511365905
433.71169745818406,0.09211194528790091
434.3523742589896,0.09226633540615757
434.9930063561915,0.0924169737757246
435.6673076425832,0.09257149155874358
436.30784799440517,0.09271444395319212
436.94834365689894,0.09285366506403464
437.6225013432377,0.09299619645715367
438.26290528966274,0.09312780137945759
438.90326456103503,0.09325572298861029
439.57727869318114,0.09338642237407456
440.2175462777777,0.09350685606882202
440.85776920158605,0.09362368390077044
441.53163982539263,0.09374280038789885
442.1717710917037,0.09385233111217388
442.81185771149467,0.09395836487453607
443.4518996894294,0.09406094452295179
444.1255798643506,0.0941652426874132
444.7655302236417,0.0942608821202464
445.40543595533745,0.09435322117766087
446.0789727285555,0.09444691863744745
446.718786870857,0.09453266969981447
447.35855639980946,0.09461531031049134
448.03194981711204,0.0946990176151141
448.67162778590864,0.09477549896597505
449.3112611555989,0.09484909819633884
449.9845112627445,0.0949235493373056
450.62405310151007,0.09499149933108912
451.26355035539746,0.09505683639371733
451.9366571981336,0.09512289669290515
452.5760629503129,0.09518318118182713
453.21542413184943,0.09524116557850218
453.8883877558983,0.09529984067450005
454.5276574649215,0.09535346198673561
455.16688261753006,0.09540514296514642
455.83970306859555,0.09545758934015906
456.47883677788195,0.09550569687953225
457.11792594496364,0.09555227467287859
457.79060326873514,0.09559981223807444
458.4296010216749,0.09564371521808013
459.0685542466272,0.09568655459829162
459.74108848876494,0.09573068191238542
460.3799503287337,0.0957718647822703
461.01876765492125,0.0958125114916976
461.69115886107465,0.09585492420972318
462.3298848314371,0.09589506533611007
462.96856630221373,0.09593526595115376
463.64081451800666,0.09597787906723351
464.27940466209475,0.09601887318064398
464.91795032079244,0.09606059888198373
465.5900555918379,0.09610557321747394
466.2285099529763,0.09614955799551399
466.86691984291247,0.09619503254934145
467.5388822147943,0.09624480572033903
468.1772008362859,0.09629419263391793
468.8154750007525,0.09634592460289033
469.48729451904,0.0964032463544372
470.1254774441695,0.09646075552838917
470.7636159264475,0.09652157430982926
471.4352926366919,0.09658954560948108
472.0733399087185,0.09665824392942814
472.7113427520708,0.09673133865011435
473.38287669979763,0.09681345328320859
474.0207883619769,0.09689679431402101
474.65865560964085,0.09698575389869962
475.33004684036496,0.09708594051128198
475.9678229359197,0.09718780399507013
476.60555463111814,0.09729665589296212
477.27680319033243,0.09741931751912353
477.9144437624782,0.09754404533268637
478.55203994841577,0.09767728948205745
479.2231458815877,0.09782733663249825
479.86065097351093,0.0979797611744141
480.4981116933777,0.09814239488856939
481.1690750459602,0.09832526736020551
481.8064447008437,0.09851072750545097
482.4437699978007,0.09870825618285672
483.11459081522844,0.0989299279992407
483.7518250762223,0.09915426713056592
484.3890149934232,0.09939269516089418
485.0261605714659,0.09964590678527245
485.69679223135245,0.09992919696272483
486.3338468119291,0.10021499306716929
486.9708570674702,0.10051778269999516
487.64134629787804,0.10085569161099685
488.2782655849405,0.10119572326294049
488.9151405610901,0.10155506889465027
489.5854874073884,0.10195504785671607
490.22227144403223,0.10235648049122606
490.85901118387847,0.10277961691073116
491.5292156914147,0.10324933857210997
492.1658645207208,0.10371949706035993
492.8024690673301,0.10421376481194494
493.4725312814371,0.10476095072889108
494.1090449464573,0.10530714301513541
494.74551434288514,0.10587980009710576
495.41543430887396,0.10651201007038451
496.0518128526528,0.10714131574860886
496.6881471419292,0.10779931581481703
497.3579249050963,0.10852370399754047
497.9941683706493,0.10924273355705036
498.630367595797,0.10999247723672449
499.3000032014097,0.11081552284133045
499.93611163174137,0.11163015571761423
500.5721758357504,0.11247722371772725
501.2416693290652,0.11340444580374477
501.87764276716916,0.11431955634237631
502.51357199301856,0.11526843325490006
503.18292341926644,0.11630409842781961
503.8187619081,0.11732327721905182
504.4545561987579,0.11837707213946821
505.12376560315533,0.11952389958524069
505.7594691856684,0.12064917189177111
506.39512858407033,0.1218093345316892
507.0641960118155,0.12306819298200435
507.69976473093993,0.1242997245565779
508.33528928001033,0.12556574192086742
509.0042147762797,0.1269353163184559
509.63964867492905,0.1282710784686561
510.27503841757425,0.12964011631917888
510.94382202752604,0.13111649748568
511.5791211485921,0.13255183780836824
512.2143761277039,0.13401826393052244
512.8830178964745,0.13559438461871498
513.5181822828308,0.13712142106921035
514.1533025412755,0.13867611949070474
514.8218025139868,0.1403409336210054
515.4568322084924,0.14194766918397986
516.0918177891217,0.14357704163337648
516.7601760108737,0.14531434192952852
517.3950710563695,0.14698341144164642
518.029922002017,0.1486679971497911
518.6981385178879,0.15045483166927615
519.3328989571928,0.15216188840596745
519.9676153106775,0.1538746697127532
520.6356901657309,0.1556795125590994
521.2703160416495,0.1573915026173993
521.9048978457649,0.15909626313036038
522.5728310850463,0.16087747544855924
523.2073224403612,0.16255146972969098
523.8417697378827,0.164202043294789
524.5095614064157,0.16590769222793816
525.1439182838949,0.16749145627889173
525.778231117587,0.1690331818648016
526.4124999120795,0.17052655536999697
527.0801037027704,0.17203941613947066
527.7142821153757,0.17341413491707083
528.3484165027767,0.1747220922041243
529.0158788274384,0.17602092485236892
529.6499228616813,0.1771758071143459
530.2839228847115,0.17824960701706302
530.9512437883131,0.1792888043464872
531.5851534868925,0.18018707479914517
532.2190191882546,0.18099729485142374
532.8861987157288,0.18175466273559965
533.5199741213473,0.1823841175941842
534.1537055437184,0.18292745944589509
534.8207437399906,0.18340909905015554
535.4543848953108,0.1837842850932406
536.0879820813607,0.184083216473555
536.7548789913271,0.18432042603297646
537.3883859390007,0.18447729013472275
538.0218489313738,0.1845726609702269
538.6886045999308,0.18461242215956933
539.3219773825913,0.18459812332031936
539.9553062239138,0.18453837546458302
540.6219206959177,0.18443188897223886
541.2551593561839,0.18429427270354934
541.8883540890674,0.1841256496743441
542.5548274093708,0.183919133831751
543.1879319898399,0.18369923489298112
543.8209926568743,0.18345959385062482
544.4873248703007,0.1831892001449444
545.1202954135515,0.18291771511345453
545.7532220573121,0.18263416510634628
546.4194132086741,0.18232460314490934
547.0522497572674,0.1820214807835807
547.6850424203112,0.18171068751663375
548.3510925543924,0.18137615173860272
548.9837951508744,0.18105190451392633
549.6164538757366,0.1807216983634832
550.2823630373132,0.18036776860160084
550.9149317242081,0.18002538909564586
551.5474565534096,0.1796767237972855
552.2132247872287,0.17930242010868463
552.8456596070464,0.1789392914399574
553.4780505830931,0.17856809181061958
554.1436779338874,0.17816773835189
554.7759789291158,0.17777732262270227
555.4082360944885,0.17737609309755464
556.0737226069723,0.17694092906578765
556.7058898200812,0.17651422558356017
557.3380132172497,0.17607344481422468
558.0033589361192,0.17559303091810954
558.6353924095638,0.17511986002122806
559.2673820809723,0.17462921853413602
559.9325870509019,0.1740926935305674
560.5644868271193,0.17356284815245912
561.1963428151976,0.17301235899567552
561.8614070808471,0.17240956307180716
562.493173202256,0.17181382966820952
563.124895549412,0.17119480029698714
563.7898191554195,0.1705172398727307
564.4214516644206,0.16984825402838233
565.053040413055,0.1691540766997226
565.6845854058702,0.16843428000715846
566.3493223430087,0.16764856485692567
566.9807775354966,0.16687527367253896
567.6121889860442,0.16607569462390925
568.2767853673577,0.16520562741068537
568.9081070460561,0.16435218375887134
569.5393849966895,0.16347275708421083
570.2038408667613,0.16251931050362362
570.8350290740127,0.16158760863360289
571.4661735670597,0.16063114658164993
572.1304889704443,0.15959823446023771
572.7615437485692,0.15859285484249608
573.3925548263542,0.15756472947874406
574.0567298075875,0.156458803546546
574.6876511988885,0.1553865727041669
575.3185289037065,0.1542942286358466
575.9825635073103,0.1531237242418607
576.6133515540787,0.15199315802417823
577.2440959282103,0.1508455350964286
577.9079901986806,0.14962025050428643
578.5386449431826,0.14844096036852164
579.1692560288902,0.14724790354707795
579.8330100107123,0.14597839007659622
580.4635314951993,0.14476052076700782
581.0940093347308,0.14353223975861137
581.7576230723644,0.14222926152510115
582.3880113390696,0.14098300871374428
583.0183559746511,0.13972962854261547
583.6818295125377,0.13840372716498162
584.31208460368,0.1371389611530302
584.9422960775155,0.1358701827507681
585.6056294600858,0.13453135991920365
586.2357514178584,0.13325736135858246
586.8658297721449,0.13198223259190497
587.5290230438004,0.13063974565698044
588.1590119103821,0.12936504436414595
588.7889571872984,0.12809182902970256
589.452010392426,0.12675408337716712
590.081866209981,0.12548638251691344
590.7116784516729,0.1242225079392399
591.3745916346415,0.12289702458601469
592.0043144453157,0.1216431891219268
592.6339936939257,0.12039525108353993
593.2967668990932,0.11908868732590837
593.9263567450034,0.11785477620858471
594.5559030426521,0.11662858145701618
595.2185363143399,0.11534678482855693
595.8479932376067,0.11413810932116772
596.4774066263963,0.11293873928419872
597.139900008915,0.11168681899527672
597.7692240516226,0.11050801346461854
598.3985045736445,0.10933989683378738
599.0608581112901,0.1081223011187168
599.6900493155117,0.10697739659822081
600.3191970128246,0.10584438229936402
600.9814107498714,0.10466497397909738
601.6104691576656,0.10355746829203857
602.2394840723209,0.10246289361691152
602.9015580530286,0.10132501935102196
603.5304837064286,0.10025794033324674
604.1593658804595,0.09920469150620202
604.8213001490622,0.09811124257079927
605.4500930900904,0.09708720292936854
606.0788425655082,0.09607776714907003
606.7075485798232,0.09508316371929813
607.3692974368823,0.0940524748778834
607.997914255684,0.09308898401827427
608.626487627138,0.09214095291645256
609.2880968749887,0.09115992903810827
609.9165810791528,0.09024419585582116
610.5450218497172,0.08934445207010862
611.2064915325354,0.08841479608164277
611.8348431640225,0.08754834409440543
612.4631513756503,0.08669832199722416
613.1244815375903,0.08582145020619832
613.7527006383461,0.08500553849297272
614.3808763329762,0.08420641524266718
615.0420670181775,0.08338348059662672
615.6701536301225,0.082619124713147
616.2981968496752,0.08187184013477959
616.9592481022555,0.08110375214891308
617.5872022673029,0.08039174221527844
618.2151130536804,0.07969701616280292
618.8760249177394,0.07898445850922581
619.5038466777769,0.0783253753527244
620.1316250728596,0.07768372337581828
620.7923975924859,0.07702716993627931
621.420086989383,0.07642139998991873
622.0477330350404,0.0758331479473488
622.7083662542937,0.07523287794312518
623.3359233299052,0.07468062742581523
623.9634370679887,0.07414592551752171
624.6239310309138,0.07360203815766626
625.2513558270766,0.07310334690457859
625.8787372994157,0.07262218344403341
626.5390920500431,0.07213461238250089
627.1663846085794,0.0716893675585079
627.7936338569816,0.07126158267888798
628.4538494393164,0.07083011044447272
629.0810098020265,0.07043806026123622
629.708126868296,0.07006335964417731
630.3682033263249,0.06968763210500695
630.995231534991,0.06934839957275103
631.6222164609026,0.06902636820619665
632.2821538385979,0.06870590905151465
632.9090499349913,0.06841900572842428
633.5359027623053,0.06814912163844303
634.1957011036211,0.0678833468024548
634.8224651294877,0.0676481864558434
635.4491858999463,0.06742983431440286
636.1088452488184,0.06721806622770635
636.7354772458893,0.06703397828919891
637.3620660012202,0.06686646277298171
638.021586401559,0.06670794430397486
638.6480864115474,0.06657418698359689
639.2745431934563,0.06645674574575619
639.9339246891614,0.06635065368473457
640.5602927537657,0.06626642660333894
641.1866176039475,0.06619824271804671
641.8458602388964,0.0661437006579816
642.4720963997934,0.06610815686161241
643.0982893599139,0.06608837060806166
643.7573931779698,0.06608446108576022
644.3834974768215,0.06609671831701548
645.0095585885429,0.06612443818292621
645.6685236335434,0.06617021396025859
646.2944961119902,0.06622936507842718
646.9204254169454,0.06630367788111818
