Raman Shift (cm-1),Fitted Intensity
307.71441355443676,0.0346508775960241
308.36391220437145,0.03498494121328075
309.01336522421843,0.0353232253599897
309.6969506915775,0.035683916411055304
310.34631006473137,0.036030985485528355
310.99562382247314,0.036382392626722854
311.6790627139999,0.036757022513749966
312.32828285516734,0.03711745052120277
312.9774573955983,0.037482328690413284
313.6607497584264,0.037871257463025505
314.30983071238734,0.03824538005472666
314.9588660802692,0.03862405826413154
315.64201196152135,0.03902762462981467
316.29095377302656,0.03941575590345316
316.93985001311376,0.039808540342238345
317.58870068658143,0.04020600795794382
318.27165217367656,0.04062948614218397
318.920409330698,0.04103665616386543
319.5691209357501,0.041448594335119854
320.25192605085977,0.04188739265235269
320.9005441695299,0.042309196570474765
321.54911675086987,0.042735842499280724
322.2317755410477,0.04319019810982921
322.8802546660554,0.04362684882606539
323.52868826836857,0.04406840283868532
324.2112007806463,0.04453851248969049
324.8595409566624,0.044990182983288565
325.5078356246195,0.04544680398138586
326.19020190600713,0.04593281918134687
326.8384031776877,0.04639963789378816
327.486558955934,0.04687143871296384
328.1687790534197,0.04737346082256655
328.81684146540283,0.04785550697632359
329.4648583985654,0.048342549692588103
330.14693235912273,0.048860624976233454
330.7948559560209,0.049357923871465564
331.4427340887123,0.049860215101067314
332.12466195928937,0.05039432978861052
332.7724467857006,0.05090684812646442
333.4201861625079,0.0514243343692429
334.10196799003825,0.05197440978241017
334.74961409053867,0.05250205106811568
335.3972147560344,0.05303461414905212
336.07885058742613,0.05360050195151846
336.7263580065737,0.05414310203474163
337.3738200053085,0.054690554702405025
338.05530988745886,0.05527203233672545
338.70267866978975,0.05582935515037035
339.3500020462998,0.056391436894605795
340.03134602607315,0.05698820327268309
340.67857621611256,0.05755993683456284
341.3257610149085,0.058136309988702735
342.00695913915115,0.05874798150549067
342.6540507814025,0.05933373424975707
343.30109704698043,0.059923980444967655
343.98214936252407,0.060550087387120144
344.62910250146524,0.06114938489412537
345.2760102782995,0.0617530019348804
345.95691683195764,0.062392985357306405
346.60373151205204,0.06300526755138991
347.25050084460236,0.06362166678164982
347.93126168316303,0.0642748759251345
348.57793794885583,0.06489949480964283
349.2245688815601,0.06552799903876713
349.9051840517932,0.06619368936093395
350.55172194750776,0.06682990735859512
351.1982145247821,0.06746974941446995
351.8786840734356,0.06814708130423652
352.52508364358073,0.06879407026863885
353.17143790982664,0.06944439224272467
353.851761883634,0.0701324304851211
354.4980231725931,0.07078927144543844
355.1442391721903,0.07144912469044983
355.8244176178596,0.07214683874400092
356.47054067000136,0.07281252244036837
357.116618447315,0.07348086837613282
357.796651411536,0.0741871335191397
358.4426362712111,0.07486056177995248
359.0885758705808,0.07553627355646915
359.73447021440006,0.07621413869790944
360.4143101115624,0.07692986095637691
361.06011157731336,0.07761172601546969
361.7058678020294,0.07829532914732128
362.3855623263371,0.07901663319650118
363.03122570277264,0.07970335676448613
363.6768438526851,0.08039137710031155
364.3563930507662,0.08111684509840066
365.00191838217506,0.0818070546322455
365.64739850156184,0.08249809528233576
366.3268024200188,0.08322623119281582
366.97218975066426,0.08391848179115095
367.6175318837886,0.08461107549011786
368.29679056920577,0.0853403114522423
368.94203994333657,0.0860330922307026
369.58724413443633,0.08672570802644038
370.26635763338345,0.08745441173302461
370.9114690952265,0.08814615315059275
371.5565353885286,0.08883720403706419
372.2355037475427,0.089563687096328
372.88047734131396,0.09025276920611745
373.52540578101616,0.09094062066884222
374.20422904662337,0.0916631479128194
374.8490648165134,0.09234790949693415
375.49385544680626,0.09303088892639595
376.1725336655036,0.09374768861368073
376.81723165568474,0.09442643714798184
377.4618845207333,0.09510284406209234
378.14041773901045,0.0958121189082266
378.78497799363686,0.09648314128889204
379.429493137588,0.09715125829200379
380.10788140190925,0.09785119724621302
380.75230396511324,0.09851277119642504
381.3966814320993,0.09917087558884766
382.0749247889071,0.09985966626202318
382.7192097048028,0.1005100723240708
383.3634495389306,0.10115644826323235
384.0415480346528,0.10183228989874252
384.6856953473434,0.1024698239045289
385.32979759270165,0.10310277500700211
386.0077512737407,0.10376389187367464
386.6517610273004,0.10438687777534389
387.29572572796314,0.10500474003803256
387.97353464070693,0.10564939511372808
388.61740687919155,0.10625619804622376
389.2612340792148,0.10685735295551031
389.9388982700257,0.10748386176013049
390.58263303748026,0.10807290119892307
391.22632278089804,0.10865578888863497
391.9038422961203,0.10926253331773167
392.547439636568,0.1098322961881932
393.190991967389,0.11039542850106629
393.86836685335584,0.11098087050532839
394.51182681079445,0.11152992409539379
395.1552417730236,0.11207189739850855
395.832472076032,0.11263459235068339
396.47579469444827,0.11316159687560029
397.1190723320615,0.1136811044780719
397.7961580983974,0.11421971406753215
398.43934342176,0.11472343473483654
399.08248377871496,0.1152192787562938
399.7594250546499,0.11573258325225143
400.4024731269019,0.11621190167682799
401.04547624713814,0.11668300421753451
401.6884344200698,0.1171457891109751
402.3651839439881,0.11762383876849213
403.0080498714269,0.11806925223681233
403.6508708659494,0.11850606758265426
404.3274760070817,0.11895649469047523
404.9702047856299,0.11937541115055009
405.6128886456281,0.11978549661145102
406.2893494501732,0.12020755316331759
406.931941123712,0.12059931257531165
407.5744878930782,0.12098205814863973
408.2508044072092,0.12137515687128725
408.89325901960547,0.12173925410838106
409.53566874219905,0.12209420671954876
410.211841012082,0.12245792754399958
410.8541586071806,0.12279401808418605
411.4964313268356,0.12312088682481724
412.17245939861095,0.12345498190065592
412.81464002024586,0.12376288610737805
413.4567757807854,0.12406154603791938
414.13265970057546,0.12436594321228257
414.7747033925516,0.12464564913565512
415.41670223778056,0.12491614359035559
416.09244205168943,0.1251909482931337
416.73434885779716,0.12544261294288528
417.37621083150225,0.12568515429490573
418.0518065856122,0.12593064979300242
418.6935765496237,0.12615459885489602
419.33530169556616,0.1263695677203444
420.01075343593766,0.126586213726379
420.6523866016105,0.12678293971564372
421.2939749635407,0.12697088259736783
421.9692827362196,0.12715931224164817
422.6107791472823,0.12732947110942838
423.2522307689287,0.1274910965040403
423.92739461993915,0.12765211170264865
424.5687543201093,0.12779651793442678
425.21006924518224,0.12793269094906673
425.8850892205264,0.12806725622515605
426.5263122535034,0.1281868764931006
427.1674905256914,0.12829861204140652
427.842366671357,0.12840784688090692
428.48345308081844,0.12850379233490383
429.124494743799,0.1285922470042908
429.79922710574465,0.1286774168508187
430.4401769353535,0.12875093415511404
431.0810820327788,0.12881739685935747
431.75567065695213,0.12887990287585457
432.39648395034965,0.1289323641194498
433.03725252585355,0.1289782456714061
433.71169745818406,0.12901961341746715
434.3523742589896,0.12905250504631055
434.9930063561915,0.12907932680498008
435.6673076425832,0.12910119399865183
436.30784799440517,0.12911610493587494
436.94834365689894,0.1291254866995939
437.6225013432377,0.1291295902501961
438.26290528966274,0.12912819938679812
438.90326456103503,0.1291218467197484
439.57727869318114,0.1291100092336235
440.2175462777777,0.1290940724857438
440.85776920158605,0.12907376367782528
441.53163982539263,0.12904787965146894
442.1717710917037,0.12901921679131595
442.81185771149467,0.12898678966136168
443.4518996894294,0.12895080056427935
444.1255798643506,0.12890929306097254
444.7655302236417,0.12886663181990501
445.40543595533745,0.12882103375990533
446.0789727285555,0.1287700903859926
446.718786870857,0.12871911277942621
447.35855639980946,0.12866583176965765
448.03194981711204,0.12860748740429107
448.67162778590864,0.12855013235286097
449.3112611555989,0.1284911116769681
449.9845112627445,0.12842741525254428
450.62405310151007,0.12836563120243544
451.26355035539746,0.1283028200422697
451.9366571981336,0.12823582289631547
452.5760629503129,0.12817155708164338
453.21542413184943,0.12810690011960704
453.8883877558983,0.1280386454382799
454.5276574649215,0.12797383424062986
455.16688261753006,0.12790926241534312
455.83970306859555,0.12784177594874307
456.47883677788195,0.12777833651686452
457.11792594496364,0.12771575908644886
457.79060326873514,0.12765104128799518
458.4296010216749,0.1275908645518721
459.0685542466272,0.1275321625881649
459.74108848876494,0.12747218229523014
460.3799503287337,0.1274171274730703
461.01876765492125,0.12736414887207828
461.69115886107465,0.1273108386024833
462.3298848314371,0.12726272925625115
462.96856630221373,0.127217285304761
463.64081451800666,0.12717253819332527
464.27940466209475,0.12713315983799212
464.91795032079244,0.12709702332334397
465.5900555918379,0.12706269166426412
466.2285099529763,0.12703379087791325
466.86691984291247,0.12700869566743622
467.5388822147943,0.12698659096197712
468.1772008362859,0.12696987587847502
468.8154750007525,0.1269575178273215
469.48729451904,0.12694941216251254
470.1254774441695,0.12694655415612346
470.7636159264475,0.12694859312783888
471.4352926366919,0.12695622163145986
472.0733399087185,0.1269688579245338
472.7113427520708,0.12698692062880462
473.38287669979763,0.12701198466025898
474.0207883619769,0.12704172150243798
474.65865560964085,0.1270774047707514
475.33004684036496,0.12712157541848837
475.9678229359197,0.12716999140089202
476.60555463111814,0.1272248654356905
477.27680319033243,0.12728978680238776
477.9144437624782,0.1273584357858152
478.55203994841577,0.1274340468352373
479.2231458815877,0.12752133850554181
479.86065097351093,0.12761175156149895
480.4981116933777,0.12770962339388206
481.1690750459602,0.12782088140054165
481.8064447008437,0.12793456709234496
482.4437699978007,0.12805620057703151
483.11459081522844,0.12819299611495666
483.7518250762223,0.12833143838847363
484.3890149934232,0.12847830843761082
485.0261605714659,0.12863376114343913
485.69679223135245,0.1288068364435702
486.3338468119291,0.1289803855395879
486.9708570674702,0.12916298111193614
487.64134629787804,0.12936512334939665
488.2782655849405,0.1295667508812863
488.9151405610901,0.1297778714608993
489.5854874073884,0.13001051484110993
490.22227144403223,0.13024156150611405
490.85901118387847,0.13048252424340379
491.5292156914147,0.13074702707088043
492.1658645207208,0.1310087536731142
492.8024690673301,0.13128078756508363
493.4725312814371,0.1315784056831304
494.1090449464573,0.13187196578259197
494.74551434288514,0.13217618221619162
495.41543430887396,0.13250803568873395
496.0518128526528,0.13283444172734538
496.6881471419292,0.13317179842417642
497.3579249050963,0.13353883121876917
497.9941683706493,0.13389891397664902
498.630367595797,0.13427017227815022
499.3000032014097,0.13467310498501397
499.93611163174137,0.13506746649991286
500.5721758357504,0.13547314222852022
501.2416693290652,0.13591241818006203
501.87764276716916,0.13634137859188858
502.51357199301856,0.13678168706757787
503.18292341926644,0.13725741259965463
503.8187619081,0.1377209517531239
504.4545561987579,0.13819574792723394
505.12376560315533,0.13870762793708608
505.7594691856684,0.13920532297726246
506.39512858407033,0.13971403805402668
507.0641960118155,0.1402613084451228
507.69976473093993,0.1407922690571614
508.33528928001033,0.1413338453909031
509.0042147762797,0.14191520443284408
509.63964867492905,0.14247800778935304
510.27503841757425,0.1430508342508492
510.94382202752604,0.14366437529974566
511.5791211485921,0.14425700316351459
512.2143761277039,0.14485885353894154
512.8830178964745,0.14550200193415616
513.5181822828308,0.14612178269513007
514.1533025412755,0.14674975998880163
514.8218025139868,0.14741921723768955
515.4568322084924,0.14806277591403935
516.0918177891217,0.14871326564510262
516.7601760108737,0.14940496420000554
517.3950710563695,0.15006818357744642
518.029922002017,0.15073681926451427
518.6981385178879,0.15144589125923216
519.3328989571928,0.15212388735596186
519.9676153106775,0.15280553134931904
520.6356901657309,0.15352629457244127
521.2703160416495,0.15421340947895737
521.9048978457649,0.15490215210883046
522.5728310850463,0.15562811623149872
523.2073224403612,0.15631793107101147
523.8417697378827,0.15700711072101903
524.5095614064157,0.15773100635759496
525.1439182838949,0.15841637663790425
525.778231117587,0.15909862282196557
526.4124999120795,0.15977688439381188
527.0801037027704,0.16048557036868644
527.7142821153757,0.1611528711944621
528.3484165027767,0.16181343823211947
529.0158788274384,0.16250046764233228
529.6499228616813,0.16314426220243322
530.2839228847115,0.1637784182053315
530.9512437883131,0.1644344624287629
531.5851534868925,0.16504575770098331
532.2190191882546,0.16564439746252319
532.8861987157288,0.16625976825241734
533.5199741213473,0.16682927905128994
534.1537055437184,0.16738305566395723
534.8207437399906,0.16794786717115529
535.4543848953108,0.16846617662251914
536.0879820813607,0.16896566794734372
536.7548789913271,0.16947001796568573
537.3883859390007,0.16992775492845882
538.0218489313738,0.1703636456242101
538.6886045999308,0.1707978116058982
539.3219773825913,0.17118584049756297
539.9553062239138,0.17154911477666868
540.6219206959177,0.17190375923558665
541.2551593561839,0.1722133768884297
541.8883540890674,0.17249551639401947
542.5548274093708,0.17276189556983626
543.1879319898399,0.17298502910675076
543.8209926568743,0.17317820974025133
544.4873248703007,0.17334837888531243
545.1202954135515,0.17347777820318086
545.7532220573121,0.1735750594170125
546.4194132086741,0.17364206783312783
547.0522497572674,0.17367148615296377
547.6850424203112,0.1736669861883727
548.3510925543924,0.17362505520793736
548.9837951508744,0.17354941131468782
549.6164538757366,0.1734384621260655
550.2823630373132,0.17328313961231123
550.9149317242081,0.17309865586772485
551.5474565534096,0.17287793203052235
552.2132247872287,0.17260621765741394
552.8456596070464,0.17231052861378063
553.4780505830931,0.17197814534482367
554.1436779338874,0.1715885818827123
554.7759789291158,0.17118080932366692
555.4082360944885,0.17073638581509348
556.0737226069723,0.17022911285112285
556.7058898200812,0.16970990429263738
557.3380132172497,0.16915458982373824
558.0033589361192,0.16853135772888597
558.6353924095638,0.16790288677065301
559.2673820809723,0.16723934845381175
559.9325870509019,0.16650349190285535
560.5644868271193,0.16576942025970054
561.1963428151976,0.1650017927272148
561.8614070808471,0.16415816460830013
562.493173202256,0.16332356710005605
563.124895549412,0.16245736587450876
563.7898191554195,0.161512233913789
564.4214516644206,0.1605834890768692
565.053040413055,0.15962549071607207
565.6845854058702,0.15863908678284966
566.3493223430087,0.15757105075046487
566.9807775354966,0.15652914405225551
567.6121889860442,0.15546162936298763
568.2767853673577,0.15431133965383476
568.9081070460561,0.1531943531886616
569.5393849966895,0.15205482350519559
570.2038408667613,0.15083212024717377
570.8350290740127,0.14964963221414154
571.4661735670597,0.14844786787415032
572.1304889704443,0.14716324045433923
572.7615437485692,0.1459253773006224
573.3925548263542,0.14467163958991147
574.0567298075875,0.14333601066015558
574.6876511988885,0.1420532410531821
575.3185289037065,0.14075806607276756
575.9825635073103,0.13938257520450556
576.6133515540787,0.1380655058068208
577.2440959282103,0.13673950217912503
577.9079901986806,0.1353352957015847
578.5386449431826,0.13399447479107124
579.1692560288902,0.13264813106191523
579.8330100107123,0.1312261640215237
580.4635314951993,0.12987189835953164
581.0940093347308,0.12851540524574
581.7576230723644,0.12708626061457615
582.3880113390696,0.1257284501377019
583.0183559746511,0.12437154189323238
583.6818295125377,0.12294527118340226
584.31208460368,0.12159326513341061
584.9422960775155,0.12024508331396506
585.6056294600858,0.11883107168221267
586.2357514178584,0.11749354874975886
586.8658297721449,0.11616253060374974
587.5290230438004,0.1147693884154455
588.1590119103821,0.11345426241247951
588.7889571872984,0.11214805507022779
589.452010392426,0.11078353679093197
590.081866209981,0.10949788833690494
590.7116784516729,0.10822328896036586
591.3745916346415,0.10689423920805265
592.0043144453157,0.10564427296181318
592.6339936939257,0.10440719409767708
593.2967668990932,0.10311951976126574
593.9263567450034,0.10191054589160325
594.5559030426521,0.1007160044758486
595.2185363143399,0.09947467101917867
595.8479932376067,0.09831110890959036
596.4774066263963,0.09716323672457235
597.139900008915,0.09597228617029252
597.7692240516226,0.0948576878152558
598.3985045736445,0.09375976071588282
599.0608581112901,0.09262234835244391
599.6900493155117,0.09155943852867245
600.3191970128246,0.09051392143490074
600.9814107498714,0.08943236801110134
601.6104691576656,0.08842309809689763
602.2394840723209,0.08743170258996263
602.9015580530286,0.08640755864723651
603.5304837064286,0.08545317090355206
604.1593658804595,0.08451692225049744
604.8213001490622,0.0835510412769382
605.4500930900904,0.082652140478648
606.0788425655082,0.08177145102373594
606.7075485798232,0.08090895901747983
607.3692974368823,0.08002069776697325
607.997914255684,0.07919544384730039
608.626487627138,0.07838824346889091
609.2880968749887,0.07755797746814828
609.9165810791528,0.07678757730888289
610.5450218497172,0.07603495350104496
611.2064915325354,0.07526179503257012
611.8348431640225,0.07454528542931177
612.4631513756503,0.0738461662450218
613.1244815375903,0.07312887800832689
613.7527006383461,0.07246498798622882
614.3808763329762,0.07181801692979535
615.0420670181775,0.07115508661371259
615.6701536301225,0.07054230664336186
616.2981968496752,0.06994591018667015
616.9592481022555,0.06933561959479066
617.5872022673029,0.068772265324787
618.2151130536804,0.06822471467830857
618.8760249177394,0.06766520256444224
619.5038466777769,0.06714947238556244
620.1316250728596,0.06664893894775434
620.7923975924859,0.06613825706761102
621.420086989383,0.06566828314197266
622.0477330350404,0.06521288735573037
622.7083662542937,0.06474904954675331
623.3359233299052,0.06432294221074766
623.9634370679887,0.06391079581568848
624.6239310309138,0.06349182017393447
625.2513558270766,0.06310770585177261
625.8787372994157,0.06273694773343938
626.5390920500431,0.06236089216303551
627.1663846085794,0.06201694510792622
627.7936338569816,0.0616857711097738
628.4538494393164,0.06135076267746044
629.0810098020265,0.061045230991405845
629.708126868296,0.06075191817491723
630.3682033263249,0.06045617681282571
630.995231534991,0.060187403287233245
631.6222164609026,0.059930329203793854
632.2821538385979,0.059672186372569276
632.9090499349913,0.059438624745224385
633.5359027623053,0.0592162823253972
634.1957011036211,0.05899419528260082
634.8224651294877,0.058794422527502506
635.4491858999463,0.05860543120502801
636.1088452488184,0.05841799352655522
636.7354772458893,0.058250718787461325
637.3620660012202,0.05809383246218503
638.021586401559,0.05793978144328762
638.6480864115474,0.05780385219534209
639.2745431934563,0.05767796460711221
639.9339246891614,0.057556186130203885
640.5602927537657,0.05745059211187968
641.1866176039475,0.057354740151268145
641.8458602388964,0.057264271555260086
642.4720963997934,0.05718814695983178
643.0982893599139,0.05712151238584686
643.7573931779698,0.05706154381063942
644.3834974768215,0.057014168166418445
645.0095585885429,0.05697607813984009
645.6685236335434,0.05694595275355328
646.2944961119902,0.05692675085841675
646.9204254169454,0.05691667763504501
