Raman Shift (cm-1),Fitted Intensity
307.71441355443676,0.022466677185228538
308.36391220437145,0.022650556529718396
309.01336522421843,0.022836556022799406
309.6969506915775,0.023034659923375524
310.34631006473137,0.023225081112844315
310.99562382247314,0.023417690464694597
311.6790627139999,0.023622825557199016
312.32828285516734,0.023819996088977644
312.9774573955983,0.02401942261003476
313.6607497584264,0.024231806804349523
314.30983071238734,0.02443593328930288
314.9588660802692,0.024642383089340098
315.64201196152135,0.02486223268169961
316.29095377302656,0.025073519855508535
316.93985001311376,0.02528719682598373
317.58870068658143,0.025503285125996443
318.27165217367656,0.025733375041991607
318.920409330698,0.0259544797492376
319.5691209357501,0.026178060566413645
320.25192605085977,0.026416106745118576
320.9005441695299,0.026644835233789275
321.54911675086987,0.02687610285622016
322.2317755410477,0.027122307758534154
322.8802546660554,0.027358850265497434
323.52868826836857,0.027597992732869964
324.2112007806463,0.02785255175603358
324.8595409566624,0.02809709133583596
325.5078356246195,0.028344289036332355
326.19020190600713,0.02860738900640878
326.8384031776877,0.028860100070406965
327.486558955934,0.02911552425218597
328.1687790534197,0.02938734182775589
328.81684146540283,0.02964838860009075
329.4648583985654,0.0299121998009081
330.14693235912273,0.030192899792121156
330.7948559560209,0.03046243468686412
331.4427340887123,0.030734781086547435
332.12466195928937,0.031024514694924666
332.7724467857006,0.03130267661995852
333.4201861625079,0.0315836923216985
334.10196799003825,0.031882595307438234
334.74961409053867,0.032169507901895725
335.3972147560344,0.032459311149640714
336.07885058742613,0.032767501934537126
336.7263580065737,0.033063271747984686
337.3738200053085,0.0333619630885436
338.05530988745886,0.033679540804101654
338.70267866978975,0.033984255427011854
339.3500020462998,0.03429191582688847
340.03134602607315,0.034618958318638385
340.67857621611256,0.03493268447511288
341.3257610149085,0.03524937340346945
342.00695913915115,0.035585935204026656
342.6540507814025,0.03590871681911387
343.30109704698043,0.03623447030970427
343.98214936252407,0.0365805805945454
344.62910250146524,0.036912436849926074
345.2760102782995,0.03724726555619302
345.95691683195764,0.037602926097595905
346.60373151205204,0.037943849490771855
347.25050084460236,0.03828773674969402
347.93126168316303,0.038652919885699986
348.57793794885583,0.03900287430912318
349.2245688815601,0.03935577423066746
349.9051840517932,0.03973042086727614
350.55172194750776,0.04008933972512583
351.1982145247821,0.04045117532540614
351.8786840734356,0.04083519299144149
352.52508364358073,0.04120297737291122
353.17143790982664,0.04157363877026462
353.851761883634,0.04196689974551228
354.4980231725931,0.042343416674484095
355.1442391721903,0.04272275936865512
355.8244176178596,0.04312509890683896
356.47054067000136,0.04351017968875658
357.116618447315,0.043898022944254635
357.796651411536,0.04430923761328921
358.4426362712111,0.044702676300731166
359.0885758705808,0.045098801656064266
359.73447021440006,0.04549758605240518
360.4143101115624,0.045920199817655605
361.06011157731336,0.04632434974266486
361.7058678020294,0.046731065646881155
362.3855623263371,0.047161923040271406
363.03122570277264,0.04757379976400901
363.6768438526851,0.04798813599988571
364.3563930507662,0.04842689487781106
365.00191838217506,0.04884615940947727
365.64739850156184,0.04926776330596175
366.3268024200188,0.04971403757523576
366.97218975066426,0.05014030894042936
367.6175318837886,0.050568785643200304
368.29679056920577,0.051022144620293246
368.94203994333657,0.0514549993343894
369.58724413443633,0.0518899113615122
370.26635763338345,0.05234987939617793
370.9114690952265,0.05278885119583115
371.5565353885286,0.05322971825824064
372.2355037475427,0.05369577464295057
372.88047734131396,0.05414035449572204
373.52540578101616,0.05458665360206164
374.20422904662337,0.05505823278741265
374.8490648165134,0.055507869198129625
375.49385544680626,0.055959035062133164
376.1725336655036,0.0564355271966912
376.81723165568474,0.056889626827582175
377.4618845207333,0.057345052594360055
378.14041773901045,0.05782580440559998
378.78497799363686,0.0582837330252877
379.429493137588,0.05874277133097993
380.10788140190925,0.059227087361669456
380.75230396511324,0.059688171135946544
381.3966814320993,0.060150135512871516
382.0749247889071,0.06063727972486792
382.7192097048028,0.06110080685974163
383.3634495389306,0.06156497349666232
384.0415480346528,0.06205417125129771
384.6856953473434,0.06251939399610741
385.32979759270165,0.06298500386051678
386.0077512737407,0.0634754442817746
386.6517610273004,0.0639415812972741
387.29572572796314,0.06440784262361214
387.97353464070693,0.06489868134717014
388.61740687919155,0.06536492044045808
389.2612340792148,0.06583101158506051
389.9388982700257,0.06632137389287629
390.58263303748026,0.06678687511777759
391.22632278089804,0.06725194777810993
391.9038422961203,0.06774093211481899
392.547439636568,0.0682048312330096
393.190991967389,0.0686680140253843
393.86836685335584,0.06915469588919301
394.51182681079445,0.06961610818400456
395.1552417730236,0.07007651057060434
395.832472076032,0.07055994676776965
396.47579469444827,0.07101797119920156
397.1190723320615,0.07147468775176771
397.7961580983974,0.07195392100028475
398.43934342176,0.07240764468635434
399.08248377871496,0.07285975967067655
399.7594250546499,0.07333382353519538
400.4024731269019,0.0737823265415325
401.04547624713814,0.07422891880355614
401.6884344200698,0.0746735013991269
402.3651839439881,0.07513920335675223
403.0080498714269,0.07557935148810217
403.6508708659494,0.07601718896471525
404.3274760070817,0.07647546645548114
404.9702047856299,0.07690825421336343
405.6128886456281,0.07733843323802743
406.2893494501732,0.0777883286768616
406.931941123712,0.07821285063073768
407.5744878930782,0.07863447057685546
408.2508044072092,0.07907504182212585
408.89325901960547,0.07949040919738315
409.53566874219905,0.07990258804611698
410.211841012082,0.08033291467021017
410.8541586071806,0.08073826135718552
411.4964313268356,0.08114014175354421
412.17245939861095,0.08155933146457343
412.81464002024586,0.08195382015997606
413.4567757807854,0.08234457559027646
414.13265970057546,0.08275177076958119
414.7747033925516,0.08313459921644142
415.41670223778056,0.08351344027311694
416.09244205168943,0.08390782459262179
416.73434885779716,0.0842782318846474
417.37621083150225,0.08464441258428773
418.0518065856122,0.0850252176678837
418.6935765496237,0.08538249058430274
419.33530169556616,0.08573531470524962
420.01075343593766,0.08610182679908214
420.6523866016105,0.08644530613699489
421.2939749635407,0.0867841335439502
421.9692827362196,0.08713570016188615
422.6107791472823,0.08746478703466404
423.2522307689287,0.08778903995948803
423.92739461993915,0.08812507647211856
424.5687543201093,0.08843923854464923
425.21006924518224,0.08874840779501804
425.8850892205264,0.08906840393339208
426.5263122535034,0.08936718156781515
427.1674905256914,0.08966083263850559
427.842366671357,0.08996435888731585
428.48345308081844,0.09024737117654041
429.124494743799,0.09052515024195276
429.79922710574465,0.09081186410115209
430.4401769353535,0.09107881477171342
431.0810820327788,0.0913404545427206
431.75567065695213,0.09161010664156312
432.39648395034965,0.09186078981231738
433.03725252585355,0.09210611524573731
433.71169745818406,0.09235855529885752
434.3523742589896,0.09259286108763742
434.9930063561915,0.0928217949423992
435.6673076425832,0.0930569775439147
436.30784799440517,0.09327489752047521
436.94834365689894,0.09348746576096949
437.6225013432377,0.09370545601953469
438.26290528966274,0.093907088509899
438.90326456103503,0.0941034255639935
439.57727869318114,0.0943044045892437
440.2175462777777,0.09448995984391031
440.85776920158605,0.09467031373056076
441.53163982539263,0.09485458398946645
442.1717710917037,0.09502438923572785
442.81185771149467,0.0951891265851292
443.4518996894294,0.09534884860167264
444.1255798643506,0.095511621562201
444.7655302236417,0.09566123255978683
445.40543595533745,0.09580601649770158
446.0789727285555,0.09595328390895959
446.718786870857,0.09608838720345672
447.35855639980946,0.09621889486222389
448.03194981711204,0.0963514005544723
448.67162778590864,0.09647274817952263
449.3112611555989,0.09658977636849037
449.9845112627445,0.09670840805424934
450.62405310151007,0.0968168904231073
451.26355035539746,0.09692137599484921
451.9366571981336,0.0970271706176823
452.5760629503129,0.0971238216612798
453.21542413184943,0.09721684671391437
453.8883877558983,0.09731099600418139
454.5276574649215,0.09739699853497881
455.16688261753006,0.09747979587019803
455.83970306859555,0.09756365220407895
456.47883677788195,0.09764034360218414
457.11792594496364,0.09771430254070562
457.79060326873514,0.09778938521559072
458.4296010216749,0.09785826355078467
459.0685542466272,0.0979249362254027
459.74108848876494,0.0979929382858499
460.3799503287337,0.09805566901101204
461.01876765492125,0.098116777281282
461.69115886107465,0.09817957305735131
462.3298848314371,0.09823799643769159
462.96856630221373,0.09829543960222634
463.64081451800666,0.09835509315928762
464.27940466209475,0.09841123264120517
464.91795032079244,0.09846709616733794
465.5900555918379,0.09852587091791669
466.2285099529763,0.09858194269593248
466.86691984291247,0.0986385082474142
467.5388822147943,0.0986988780473398
468.1772008362859,0.09875730216373466
468.8154750007525,0.09881705929209389
469.48729451904,0.09888172144318164
470.1254774441695,0.09894513486099672
470.7636159264475,0.09901079484406655
471.4352926366919,0.09908268556367518
472.0733399087185,0.09915395779948089
472.7113427520708,0.09922847027170038
473.38287669979763,0.09931078337693566
474.0207883619769,0.0993930354759009
474.65865560964085,0.09947960870969681
475.33004684036496,0.0995758185109342
475.9678229359197,0.09967244640163506
476.60555463111814,0.09977457237404994
477.27680319033243,0.09988846208281647
477.9144437624782,0.10000316566290779
478.55203994841577,0.10012465137153471
479.2231458815877,0.10026034868907213
479.86065097351093,0.10039716834457021
480.4981116933777,0.10054217519018574
481.1690750459602,0.10070419710725181
481.8064447008437,0.10086755969517573
482.4437699978007,0.10104065304224574
483.11459081522844,0.10123396213423515
483.7518250762223,0.10142873862291715
484.3890149934232,0.10163494971176687
485.0261605714659,0.10185319274002345
485.69679223135245,0.10209660083833202
486.3338468119291,0.10234150274523511
486.9708570674702,0.10260039492234298
487.64134629787804,0.10288878557526458
488.2782655849405,0.10317858340311992
488.9151405610901,0.10348455855046323
489.5854874073884,0.10382496359465465
490.22227144403223,0.10416659581877587
490.85901118387847,0.10452685547340274
491.5292156914147,0.10492715174980337
492.1658645207208,0.10532839376602811
492.8024690673301,0.10575100803651279
493.4725312814371,0.1062200180533291
494.1090449464573,0.10668956962362094
494.74551434288514,0.10718355324953827
495.41543430887396,0.10773110863121223
496.0518128526528,0.10827863365411727
496.6881471419292,0.1088539605568236
497.3579249050963,0.10949088374081761
497.9941683706493,0.11012695420062364
498.630367595797,0.1107944565793102
499.3000032014097,0.1115323977464321
499.93611163174137,0.1122682762813174
500.5721758357504,0.11303935757615474
501.2416693290652,0.11389040762873193
501.87764276716916,0.11473758994034394
502.51357199301856,0.1156236707117497
503.18292341926644,0.11659966450074818
503.8187619081,0.11756910157613132
504.4545561987579,0.118580722059632
505.12376560315533,0.119692158623298
505.7594691856684,0.1207930989753061
506.39512858407033,0.12193863137734255
507.0641960118155,0.12319317952851784
507.69976473093993,0.12443162204258207
508.33528928001033,0.12571560706884607
509.0042147762797,0.1271162413988398
509.63964867492905,0.12849307349512357
510.27503841757425,0.12991429000689086
510.94382202752604,0.13145721163353433
511.5791211485921,0.1329662189627829
512.2143761277039,0.13451571251797992
512.8830178964745,0.13618833478503567
513.5181822828308,0.13781438769975274
514.1533025412755,0.13947379854945632
514.8218025139868,0.14125318981808238
515.4568322084924,0.14297100527308032
516.0918177891217,0.1447116127161873
516.7601760108737,0.14656384543681797
517.3950710563695,0.14833775060398688
518.029922002017,0.15012064839745495
518.6981385178879,0.1520014654396588
519.3328989571928,0.15378651623080475
519.9676153106775,0.1555642231340013
520.6356901657309,0.1574212747729902
521.2703160416495,0.15916589440688622
521.9048978457649,0.16088548056613144
522.5728310850463,0.1626621160100091
523.2073224403612,0.16431213507402592
523.8417697378827,0.16591964056346328
524.5095614064157,0.16755990319280617
525.1439182838949,0.169063559803459
525.778231117587,0.17050916332516822
526.4124999120795,0.17189232765277793
527.0801037027704,0.1732764990817494
527.7142821153757,0.1745196499460934
528.3484165027767,0.17568984692447154
529.0158788274384,0.1768402157482445
529.6499228616813,0.17785385173343576
530.2839228847115,0.1787890880819143
530.9512437883131,0.17968820137938665
531.5851534868925,0.18046128400836883
532.2190191882546,0.18115596414958474
532.8861987157288,0.181803767834817
533.5199741213473,0.18234166401700802
534.1537055437184,0.18280623269826282
534.8207437399906,0.18321890817899383
535.4543848953108,0.18354156440207586
536.0879820813607,0.1838000204772899
536.7548789913271,0.1840067145846228
537.3883859390007,0.18414500016366275
538.0218489313738,0.18423078256832162
538.6886045999308,0.1842688770908233
539.3219773825913,0.18425980560333258
539.9553062239138,0.18421083356025159
540.6219206959177,0.18412063319188202
541.2551593561839,0.1840023268801087
541.8883540890674,0.18385606578402294
542.5548274093708,0.18367580536695502
543.1879319898399,0.18348302159873361
543.8209926568743,0.18327233917089888
544.4873248703007,0.18303423863419221
545.1202954135515,0.18279506401711482
545.7532220573121,0.1825453878386491
546.4194132086741,0.18227318319512067
547.0522497572674,0.18200719431339593
547.6850424203112,0.18173516399325063
548.3510925543924,0.1814432063577509
548.9837951508744,0.18116108399462422
549.6164538757366,0.18087459450825438
550.2823630373132,0.1805683209592677
550.9149317242081,0.18027265983370241
551.5474565534096,0.17997198030727304
552.2132247872287,0.17964937541749204
552.8456596070464,0.17933629390614228
553.4780505830931,0.17901584609757396
554.1436779338874,0.17866944726391895
554.7759789291158,0.17833057479957948
555.4082360944885,0.1779809606579364
556.0737226069723,0.17759999645222355
556.7058898200812,0.17722447563417837
557.3380132172497,0.17683442278515718
558.0033589361192,0.17640677416484724
558.6353924095638,0.17598302184131318
559.2673820809723,0.1755410302290415
559.9325870509019,0.1750548283997845
560.5644868271193,0.174571917543458
561.1963428151976,0.17406750481724584
561.8614070808471,0.17351229374836144
562.493173202256,0.17296091854083206
563.124895549412,0.17238545318488815
563.7898191554195,0.17175293000238276
564.4214516644206,0.1711259864954852
565.053040413055,0.17047315677218378
565.6845854058702,0.16979403214489983
566.3493223430087,0.16905040623370768
566.9807775354966,0.16831640111191631
567.6121889860442,0.1675553964423859
568.2767853673577,0.16672510771686133
568.9081070460561,0.16590859058775495
569.5393849966895,0.16506514946312068
570.2038408667613,0.16414843174401036
570.8350290740127,0.16325037817172972
571.4661735670597,0.1623261834921193
572.1304889704443,0.1613255414658956
572.7615437485692,0.16034899659280205
573.3925548263542,0.15934771098049685
574.0567298075875,0.15826763264575844
574.6876511988885,0.15721742778237113
575.3185289037065,0.15614440301435767
575.9825635073103,0.1549910486858585
576.6133515540787,0.15387350308387468
577.2440959282103,0.15273548088339156
577.9079901986806,0.15151636874231222
578.5386449431826,0.15033899259561012
579.1692560288902,0.14914381033216223
579.8330100107123,0.14786751046529578
580.4635314951993,0.14663871860827166
581.0940093347308,0.14539502783538255
581.7576230723644,0.1440708717220151
582.3880113390696,0.14279971354692356
583.0183559746511,0.14151671603087723
583.6818295125377,0.14015452561401115
584.31208460368,0.13885043455447457
584.9422960775155,0.13753763868637833
585.6056294600858,0.1361474776800493
586.2357514178584,0.13482004248094548
586.8658297721449,0.13348704205706144
587.5290230438004,0.13207899137063664
588.1590119103821,0.13073775076423852
588.7889571872984,0.12939402761306765
589.452010392426,0.12797798630997717
590.081866209981,0.1266322483207591
590.7116784516729,0.12528699988052705
591.3745916346415,0.12387251270406846
592.0043144453157,0.12253119943679362
592.6339936939257,0.12119319200985314
593.2967668990932,0.11978930409625681
593.9263567450034,0.11846082245290818
594.5559030426521,0.11713827043682612
595.2185363143399,0.1157534093674016
595.8479932376067,0.114445547676742
596.4774066263963,0.11314601859595111
597.139900008915,0.11178790342736517
597.7692240516226,0.11050775347639609
598.3985045736445,0.10923809813931504
599.0608581112901,0.10791367452523787
599.6900493155117,0.1066675779844816
600.3191970128246,0.10543388460077213
600.9814107498714,0.1041492846126355
601.6104691576656,0.10294280238126874
602.2394840723209,0.10175037302360947
602.9015580530286,0.10051089782515125
603.5304837064286,0.0993488004135781
604.1593658804595,0.098202147824415
604.8213001490622,0.0970122709783244
605.4500930900904,0.09589854771648045
606.0788425655082,0.0948014101597066
606.7075485798232,0.09372117927267057
607.3692974368823,0.09260268368350365
607.997914255684,0.09155805533531537
608.626487627138,0.09053115969736698
609.2880968749887,0.08946961810318102
609.9165810791528,0.08847979236832247
610.5450218497172,0.08750830705120861
611.2064915325354,0.08650567454852418
611.8348431640225,0.08557229767480488
612.4631513756503,0.0846576699616995
613.1244815375903,0.08371526255688744
613.7527006383461,0.08283939499456767
614.3808763329762,0.08198250774460093
615.0420670181775,0.08110107094300109
615.6701536301225,0.08028325404473728
616.2981968496752,0.07948449365365227
616.9592481022555,0.07866427510948769
617.5872022673029,0.07790460097694221
618.2151130536804,0.07716392781979108
618.8760249177394,0.0764047519125132
619.5038466777769,0.07570293445258865
620.1316250728596,0.07501995396286563
620.7923975924859,0.0743212964590869
621.420086989383,0.0736767420000019
622.0477330350404,0.07305077483379757
622.7083662542937,0.07241183610929652
623.3359233299052,0.07182371223012919
623.9634370679887,0.07125386226936774
624.6239310309138,0.07067363788780168
625.2513558270766,0.07014093942051144
625.8787372994157,0.06962615867268643
626.5390920500431,0.06910350643361901
627.1663846085794,0.0686251178920208
627.7936338569816,0.0681642676337548
628.4538494393164,0.06769797050049414
629.0810098020265,0.06727272446588854
629.708126868296,0.06686463224425294
630.3682033263249,0.06645345683241456
630.995231534991,0.06608018807192298
631.6222164609026,0.06572370041285241
632.2821538385979,0.06536645095567044
632.9090499349913,0.06504404625994442
633.5359027623053,0.06473807713057413
634.1957011036211,0.0644336450302966
634.8224651294877,0.06416108892645134
635.4491858999463,0.06390466415285775
636.1088452488184,0.06365207337390515
636.7354772458893,0.06342848999253993
637.3620660012202,0.06322078794132185
638.021586401559,0.06301923659576317
638.6480864115474,0.06284392804374422
639.2745431934563,0.06268431693135039
639.9339246891614,0.06253321544641029
640.5602927537657,0.06240569705562458
641.1866176039475,0.062293769249272456
641.8458602388964,0.06219277548601476
642.4720963997934,0.06211280826878435
643.0982893599139,0.06204841188342922
643.7573931779698,0.06199746349127077
644.3834974768215,0.06196508403163558
645.0095585885429,0.061948352004878346
645.6685236335434,0.061947696144466644
646.2944961119902,0.061963243987695454
