Raman Shift (cm-1),Fitted Intensity
171.300781,0.039049462829243764
173.222656,0.0420662586200818
175.146484,0.04548621070867981
177.068359,0.049352559000617836
178.990234,0.053717594840293134
180.910156,0.058620125206352125
182.832031,0.06410427604564585
184.751953,0.07017721110929039
186.671875,0.07684019531815309
188.591797,0.08406039361031963
190.511719,0.09177042688677384
192.429688,0.0998560589905429
194.347656,0.10817990264428691
196.265625,0.11656007795170209
198.183594,0.12478455121867052
200.099609,0.13261446312458652
202.015625,0.13982346379570443
203.933594,0.14619540412479623
205.847656,0.15152073760432774
207.763672,0.15567296157716115
209.677734,0.15855957202700852
211.59375,0.1601705384383881
213.507812,0.16055664906378272
215.419922,0.1598407551743478
217.333984,0.15819530992947534
219.246094,0.15583700176156143
221.158203,0.15299977938502993
223.070312,0.14992271745301333
224.982422,0.14683205299791693
226.892578,0.1439302336904039
228.802734,0.14137679440406087
230.712891,0.1392926831454209
232.623047,0.13775565514918833
234.533203,0.13680226751487448
236.441406,0.13643249615883285
238.349609,0.13661445934656866
240.257812,0.137293757779021
242.166016,0.1383987990449785
244.072266,0.13984518013405994
245.980469,0.14154712557952362
247.886719,0.14341065779236428
249.791016,0.1453463349467958
251.697266,0.1472728606583383
253.601562,0.14910659717284624
255.507812,0.1507782126091778
257.412109,0.1522188475200462
259.314453,0.1533720762176318
261.21875,0.15419166643725124
263.121094,0.15463622827172188
265.023438,0.1546760686506891
266.925781,0.15428945536924019
268.828125,0.1534635328495188
270.728516,0.15219561833689807
272.628906,0.15048913290437924
274.529297,0.148355846379863
276.429688,0.14581462440530557
278.330078,0.14289067044974813
280.228516,0.13961819817792298
282.126953,0.1360295110104855
284.025391,0.1321632579892898
285.923828,0.128060627028447
287.822266,0.12376432480334675
289.71875,0.11932225956477462
291.615234,0.1147728790259643
293.511719,0.11015777405957415
295.40625,0.10552140834510619
297.302734,0.10089133614870122
299.197266,0.09631113290614914
301.091797,0.09180664200651333
302.986328,0.0874048350541722
304.878906,0.08313324198902608
306.773438,0.07900241506309551
308.666016,0.07503648731023486
310.558594,0.07124313884781298
312.449219,0.06763465669174445
314.341797,0.06420914111295094
316.232422,0.06097642413430497
318.123047,0.057933176016629506
320.013672,0.05507757761887251
321.904297,0.05240602276791495
323.792969,0.04991592683612378
325.681641,0.04759822995284799
327.570312,0.045445857273179374
329.458984,0.043451115529687015
331.347656,0.04160592566134073
333.234375,0.039903705821260876
335.121094,0.03833419679180814
337.007812,0.03688923366750965
338.894531,0.03556086950005414
340.779297,0.03434267479916718
342.664062,0.03322597155655709
344.548828,0.032203930592535776
346.433594,0.03127017186553837
348.318359,0.03041878032362056
350.201172,0.02964507672260257
352.085938,0.028942489939979433
353.96875,0.02830798135652493
355.849609,0.02773731010677703
357.732422,0.0272256979601527
359.613281,0.026771045724476597
361.494141,0.026370047034630594
363.375,0.026020359358902317
365.255859,0.0257200325173123
367.134766,0.025467741854058108
369.015625,0.025261788071135258
370.894531,0.025101815004427777
372.773438,0.024987201879001688
374.650391,0.024918032736127714
376.529297,0.024894644990558244
378.40625,0.02491805225901593
380.283203,0.02498970691943534
382.160156,0.025111715004603085
384.035156,0.02528666625276591
385.912109,0.025518530851932186
387.787109,0.02581137572420321
389.662109,0.026171081622345403
391.537109,0.026604656406002538
393.410156,0.027120117540762333
395.283203,0.027728332450694414
397.15625,0.028441960610743215
399.029297,0.029276199345148697
400.902344,0.03024909123094694
402.773438,0.03138047314265103
404.646484,0.032696907913255094
406.517578,0.03422268682619142
408.388672,0.03598828968187038
410.257812,0.038021593021147715
412.128906,0.040355948872183835
413.998047,0.043011733818149545
415.867188,0.04600904534540957
417.736328,0.04935402168365582
419.603516,0.05303247147469
421.470703,0.057016828949937155
423.339844,0.06125641045128913
425.207031,0.06566068563699191
427.072266,0.07012171072616037
428.939453,0.0745186870949322
430.804688,0.07869638387949984
432.669922,0.0825069541570587
434.535156,0.08580300147950835
436.400391,0.08845491373098052
438.263672,0.09036140923886665
440.126953,0.09146597455677503
441.990234,0.09175503238888941
443.853516,0.09126295125091245
445.716797,0.09006917283118998
447.578125,0.08829314936962444
449.439453,0.08607831155870962
451.300781,0.08358421200501263
453.162109,0.08097334809015501
455.023438,0.07840020723098254
456.882812,0.07600513121882436
458.742188,0.07390096787580698
460.601562,0.07217909665485142
462.460938,0.07090717112403298
464.318359,0.07013237440674876
466.177734,0.06988280907812315
468.035156,0.07017665023885498
469.892578,0.07102379157173208
471.748047,0.0724300905598806
473.605469,0.07440699725791855
475.460938,0.07696247924269248
477.316406,0.08011596679573701
479.171875,0.08389170457078371
481.025391,0.08831577522043002
482.880859,0.09343499102203326
484.734375,0.09928133596212496
486.587891,0.1059061283769
488.441406,0.11335690160626102
490.292969,0.12167022888138233
492.146484,0.1309041303238252
493.998047,0.14107024933164777
495.849609,0.15219506464453628
497.701172,0.1642773082546065
499.550781,0.17727826223425494
501.402344,0.19117338698539074
503.251953,0.20585031790985808
505.101562,0.22120676064637534
506.949219,0.23707478654934375
508.798828,0.25330370926802076
510.646484,0.26964512524168277
512.494141,0.28587739114763844
514.341797,0.3017448836772229
516.189453,0.3169847442524515
518.035156,0.3313234516992967
519.880859,0.3445353876239997
521.728516,0.3564182803077689
523.572266,0.36676194998065
525.417969,0.37547565265837324
527.261719,0.3824705757209919
529.107422,0.387750186036369
530.951172,0.3913509844523487
532.792969,0.39338089340453575
534.636719,0.39399463710008353
536.478516,0.39337835996115983
538.322266,0.391743010088548
540.164062,0.3893144191916164
542.003906,0.386312929712163
543.845703,0.3829324965656172
545.685547,0.37935082518506663
547.525391,0.3756960594633627
549.365234,0.37205475423130635
551.205078,0.3684657029345879
553.044922,0.36492071384197855
554.882812,0.3613724647284604
556.720703,0.35773030341041245
558.558594,0.3538805375457722
560.396484,0.34969313109204025
562.232422,0.3450380399527802
564.068359,0.33978177757919115
565.90625,0.3338038364815973
567.740234,0.3270346329487757
569.576172,0.3193941184161034
571.412109,0.3108634738245056
573.246094,0.30146328949849194
575.080078,0.2912299276570121
576.914062,0.2802403379919183
578.746094,0.2686116232235561
580.580078,0.2564449260061714
582.412109,0.24390689879894428
584.244141,0.23113359540584205
586.076172,0.21827526014617116
587.90625,0.20549105149077387
589.738281,0.1928893257330621
591.568359,0.18061844983163539
593.398438,0.16876935870413648
595.228516,0.15742792317820914
597.056641,0.1466718644249267
598.886719,0.13652576314810638
600.714844,0.12704098582846432
602.542969,0.11822002055788512
604.371094,0.11006264420481159
606.197266,0.10256480345415128
608.025391,0.09568968020220964
609.851562,0.08942452897001262
611.677734,0.08372977002144479
613.503906,0.07857100856065989
615.328125,0.07391779723740939
617.152344,0.06972997831599037
618.978516,0.06597134285936734
620.800781,0.06262390624235276
622.625,0.05965089034762572
624.449219,0.05703569610004694
626.271484,0.05476626470008392
628.09375,0.052832843055487536
629.916016,0.05123824005527196
631.738281,0.04999801571503955
633.558594,0.049146216246743105
635.380859,0.048740130911731044
637.201172,0.04887766166392726
639.021484,0.04970991919917994
640.839844,0.051459096294299046
642.660156,0.05443260587389718
644.478516,0.05897469726422202
646.296875,0.06538209182407514
648.115234,0.07370775955484786
649.933594,0.08355852294608088
651.75,0.09401174581658649
653.566406,0.10387278155065946
655.382812,0.11214870924249398
657.199219,0.11856859223838567
659.015625,0.12366895695818235
660.830078,0.12824359944523672
662.646484,0.13249193376274504
664.460938,0.13547364409466248
666.275391,0.13549986752652776
668.087891,0.13118735806243803
669.902344,0.12244225741957716
671.714844,0.1107004564180845
673.527344,0.09818717452965954
675.339844,0.08695723242412431
677.150391,0.07824592494711986
678.962891,0.07236228793575869
680.773438,0.06905459203945552
682.583984,0.06782522647863898
684.394531,0.06819963753305577
686.205078,0.06981357840081362
688.013672,0.07241590112431427
689.822266,0.07585001219842781
691.630859,0.08001838165824224
693.439453,0.08486172655300546
695.248047,0.09034450375474726
697.054688,0.09643885290374007
698.861328,0.10313825728496571
700.667969,0.11043567080074604
702.474609,0.11832655289408907
704.28125,0.12680712953741
706.085938,0.1358629510197367
707.890625,0.14549701585902328
709.695312,0.1557011853163735
711.5,0.1664644089472937
713.304688,0.17777221507117194
715.107422,0.189593238885109
716.910156,0.20191711128176867
718.712891,0.2147171837073308
720.515625,0.2279622976997259
722.318359,0.24161675235569202
724.119141,0.25562491338000337
725.919922,0.26995675767379324
727.720703,0.28456343889704716
729.521484,0.29939210998815324
731.322266,0.31438631921098903
733.121094,0.3294700611196024
734.919922,0.34459766375070516
736.71875,0.3597055674552001
738.517578,0.374729488435317
740.316406,0.38960564081570226
742.113281,0.40425651152112263
743.910156,0.4186409215295919
745.707031,0.4327083411583557
747.503906,0.446419108766024
749.300781,0.4597503712879405
751.095703,0.47269152312906987
752.890625,0.48530187073976944
754.685547,0.49769368347883525
756.480469,0.5100938651862051
758.275391,0.5229286831678707
760.068359,0.5369516590318283
761.861328,0.5534578281831731
763.654297,0.5739921368071401
765.447266,0.5975753112197992
767.240234,0.6138533018268753
769.03125,0.6112054200924095
770.822266,0.5990289741895453
772.613281,0.589955838452434
774.404297,0.5868821580707169
776.195312,0.5896464829327784
777.984375,0.5990593204185446
779.773438,0.6183471222951044
781.5625,0.6550244308209893
783.351562,0.7244275800297828
785.140625,0.848769610705538
786.927734,1.0005838690940903
788.714844,1.0009424060231253
790.501953,0.8518890188863081
792.289062,0.7383352308336011
794.076172,0.6951835091220424
795.861328,0.6997650203561457
797.646484,0.6944000276329455
799.433594,0.6304920617611288
801.216797,0.5552807881671051
803.001953,0.5009088043179513
804.785156,0.4644618107484456
806.570312,0.43888253016597834
808.353516,0.41996316794323474
810.136719,0.405416009742563
811.917969,0.39406916926968266
813.701172,0.38526917204000044
815.482422,0.378697813383787
817.263672,0.37416096574401414
819.044922,0.37155478256066427
820.824219,0.3708106883780653
822.605469,0.3718665212429279
824.384766,0.37464902335218797
826.164062,0.37906471477623405
827.943359,0.3849894063130202
829.722656,0.39226453608015033
831.5,0.4006872673121207
833.279297,0.41005234804121066
835.056641,0.4200917799723049
836.832031,0.43054230442744823
838.609375,0.4411634548790804
840.386719,0.4516910349921155
842.162109,0.46188517869179313
843.9375,0.4715651762820255
845.712891,0.4805838549884227
847.488281,0.4888453956678198
849.261719,0.49629975574390234
851.035156,0.5029656629230601
852.810547,0.5089039971173802
854.582031,0.5141874188268857
856.355469,0.5189506715696349
858.128906,0.5233165521036577
859.900391,0.527409996169439
861.671875,0.5313542011173523
863.443359,0.5352476087621052
865.214844,0.5391624571668976
866.984375,0.5431367534445727
868.755859,0.5471911309374861
870.525391,0.5512996990561496
872.294922,0.5554249031133408
874.064453,0.5595049368169347
875.832031,0.5634599989741823
877.601562,0.5672161857742613
879.369141,0.5706820323925491
881.136719,0.5737843155585372
882.904297,0.5764569983104183
884.669922,0.5786487484729316
886.4375,0.580337078219685
888.203125,0.5815173282843549
889.96875,0.5822212848634498
891.734375,0.5825128467754739
893.498047,0.5824931418136622
895.263672,0.5823012656966214
897.027344,0.5821133054941016
898.791016,0.5821357258908194
900.554688,0.582594968426116
902.316406,0.5837174156836693
904.080078,0.5857096799032316
905.841797,0.5887164081882612
907.603516,0.5928007151568191
909.365234,0.5979087318004902
911.126953,0.6038573058222224
912.886719,0.6103358927644927
914.646484,0.6169684028848681
916.408203,0.6233703342159796
918.166016,0.6292147702716819
919.925781,0.6343977710643889
921.685547,0.6390388126798249
923.443359,0.6435144751068392
925.201172,0.648377283139724
926.958984,0.6541577904265795
928.716797,0.6611289073256347
930.472656,0.6690798658018825
932.230469,0.677267483706542
933.986328,0.6844839376989543
935.742188,0.6894641304248113
937.496094,0.6912855904464883
939.251953,0.6896915018236881
941.005859,0.6850438966839718
942.761719,0.6778439152109795
944.515625,0.6680573699616833
946.267578,0.6545316938246769
948.021484,0.6349928899961754
949.773438,0.6069263035443221
951.527344,0.5685937640051498
953.279297,0.52032213187818
955.029297,0.46458264580274256
956.78125,0.405280340967517
958.533203,0.346922692416317
960.283203,0.29326978122725245
962.033203,0.24652360098410528
963.783203,0.2074539385331735
965.53125,0.17572150154626687
967.28125,0.15025366662460665
969.029297,0.12991347631356137
970.777344,0.11355524050586542
972.525391,0.10026110746603646
974.273438,0.08932612795566414
976.019531,0.08023715771448806
977.767578,0.07259145543263817
979.513672,0.06612509426443353
981.259766,0.06061919172512049
983.005859,0.05591429499534799
984.75,0.05189081985486818
986.496094,0.04844197390675054
988.240234,0.045496917063568655
989.984375,0.042987387897319755
991.728516,0.04086036757652472
993.470703,0.03907334684970404
995.214844,0.03758493055716563
996.957031,0.0363667040362662
998.699219,0.03538968393113982
1000.441406,0.03463049509513559
1002.181641,0.03406943895785327
1003.923828,0.03368769762136478
1005.664062,0.03347082328417438
1007.404297,0.033404887138424745
1009.144531,0.03347808346914489
1010.884766,0.03367995941144745
1012.623047,0.03400078044005584
1014.363281,0.034432926010676046
1016.101562,0.034967897948498756
1017.839844,0.035599262243233225
1019.576172,0.036319842431157316
1021.314453,0.03712538450877057
1023.050781,0.038008554684716304
1024.787109,0.038964955396708974
1026.523438,0.039989522871321
1028.259766,0.04107732320082076
1029.996094,0.042223504187776026
1031.730469,0.04342187157067791
1033.464844,0.04466888235612815
1035.199219,0.045959706905361865
1036.933594,0.0472894633293579
1038.667969,0.048653200485399915
1040.400391,0.05004430388507012
1042.134766,0.05146079588082885
1043.867188,0.05289429161330214
1045.599609,0.054341097582603456
1047.330078,0.05579421937682775
1049.0625,0.05725151996205627
1050.792969,0.0587042522220409
1052.523438,0.060148566119937984
1054.253906,0.06157895204653281
1055.984375,0.06298990882024982
1057.712891,0.06437441482775817
1059.443359,0.06573018672252295
1061.171875,0.06704884623280025
1062.900391,0.06832673787416764
1064.628906,0.0695587986288967
1066.355469,0.07073883312067746
1068.083984,0.07186482054663224
1069.810547,0.07292976311314893
1071.537109,0.0739307686627638
1073.263672,0.07486392516231066
1074.990234,0.07572562615655706
1076.714844,0.0765117523711091
1078.439453,0.07722040905202417
1080.164062,0.07784905968572876
1081.888672,0.07839555780316448
1083.613281,0.07885816133849727
1085.337891,0.07923554710149305
1087.060547,0.07952653721486863
1088.783203,0.07973114622861596
1090.505859,0.07984934787602739
1092.228516,0.079881551410249
1093.951172,0.07982859879129678
1095.671875,0.07969196094469683
1097.392578,0.07947330663915997
1099.113281,0.07917472081747151
1100.833984,0.07879867788082658
1102.554688,0.0783480239965899
1104.273438,0.077826589957229
1105.992188,0.07723742190219433
1107.712891,0.07658356303266864
1109.429688,0.07587144194484702
1111.148438,0.07510307559086501
1112.867188,0.07428380912697738
1114.583984,0.07341940910967021
1116.300781,0.07251387192973979
1118.017578,0.07157222474857881
1119.734375,0.07059958853993932
1121.449219,0.06960229498674511
1123.166016,0.0685832810602148
1124.880859,0.06755006540410856
1126.595703,0.06650666136963006
1128.310547,0.06545817139532951
1130.025391,0.0644096076360991
1131.738281,0.06336705016872238
1133.451172,0.06233403943612965
1135.164062,0.061315147728562974
1136.876953,0.06031475720528805
1138.589844,0.059337043874428334
1140.302734,0.05838595750602687
1142.013672,0.05746623502172842
1143.724609,0.05658021581698498
1145.435547,0.055731070082812625
1147.146484,0.05492169271240021
1148.855469,0.05415554191367817
1150.566406,0.0534331831099505
1152.275391,0.05275828263444213
1153.984375,0.052131711250707466
1155.693359,0.051554893285491295
1157.402344,0.05102895909551657
1159.109375,0.05055526126904532
1160.816406,0.05013372125823774
1162.525391,0.049764220126392436
1164.230469,0.049447937544706985
1165.9375,0.04918343686042
1167.644531,0.04897059828859265
1169.349609,0.04880882491656582
1171.054688,0.04869686425625427
1172.759766,0.04863352094319223
1174.464844,0.04861739673114276
1176.169922,0.0486469047035223
1177.873047,0.04872017522750277
1179.576172,0.0488353024158964
1181.28125,0.04899042861089324
1182.982422,0.049182769524211065
1184.685547,0.04941062673796046
1186.388672,0.04967140682521427
1188.089844,0.049962285271772135
1189.791016,0.05028101304509227
1191.492188,0.05062501223530957
1193.193359,0.05099167218541415
1194.892578,0.05137791144649693
1196.59375,0.05178199089802931
1198.292969,0.05220037301439855
1199.992188,0.0526309323455396
1201.691406,0.05307112997239038
1203.390625,0.053518482238972306
1205.087891,0.05397005038331425
1206.785156,0.054424014565768244
1208.482422,0.05487813485051248
1210.179688,0.055330270272144294
1211.876953,0.055778388858664735
1213.574219,0.05622057664867166
1215.269531,0.056654548206144274
1216.964844,0.0570791627386137
1218.660156,0.05749290081340822
1220.355469,0.057894382833670224
1222.050781,0.058282369880088086
1223.744141,0.05865534591180173
1225.4375,0.05901281746402583
1227.130859,0.059353979639682294
1228.824219,0.059678168933038706
1230.517578,0.059984860339574834
1232.210938,0.06027366543902346
1233.902344,0.06054402526808832
1235.59375,0.06079615392142785
1237.285156,0.06103004299291255
1238.976562,0.06124579931489779
1240.667969,0.06144363873423864
1242.357422,0.06162368084609977
1244.046875,0.06178657621176722
1245.736328,0.061932824277311824
1247.425781,0.06206300503153613
1249.115234,0.06217777181280569
1250.802734,0.06227773668476154
1252.492188,0.06236390907526843
1254.179688,0.062436918705057895
1255.867188,0.062497747047655386
1257.554688,0.06254730743276458
1259.240234,0.06258650684448903
1260.927734,0.06261640998204633
1262.613281,0.06263794262444076
1264.298828,0.06265215659334303
1265.984375,0.06266007748599707
1267.667969,0.06266274013380906
1269.353516,0.062661191158708
1271.037109,0.06265647607037406
1272.720703,0.06264963661911606
1274.404297,0.06264171223896832
1276.087891,0.06263373857760418
1277.771484,0.06262674595810523
1279.453125,0.0626217623930354
1281.134766,0.06261979186299105
1282.816406,0.06262183927600845
1284.498047,0.06262890131052586
1286.179688,0.06264196637874714
1287.859375,0.0626619871125092
1289.541016,0.06268998188349584
1291.220703,0.06272684893773064
1292.900391,0.06277357222524867
1294.580078,0.06283110266840454
1296.257812,0.06290029939747813
1297.9375,0.06298226659658313
1299.615234,0.06307775353856983
1301.292969,0.0631877869583508
1302.970703,0.06331330685628814
1304.646484,0.06345508103303406
1306.324219,0.0636143863192578
1308.0,0.06379180227810592
1309.675781,0.06398846123160615
1311.351562,0.0642053291221791
1313.027344,0.0644433823722925
1314.703125,0.06470360870136514
1316.376953,0.06498666512096316
1318.050781,0.06529385351762824
1319.724609,0.06562620079965467
1321.398438,0.06598475015658647
1323.072266,0.06637056083549425
1324.744141,0.0667842096616063
1326.417969,0.06722775594916909
