Raman Shift (cm-1),Fitted Intensity
171.300781,0.10218572408849906
173.222656,0.10878436100832901
175.146484,0.11588725685528217
177.068359,0.12347126942644182
178.990234,0.13152134184703457
180.910156,0.13999158218864405
182.832031,0.14884578125926556
184.751953,0.15799540862333783
186.671875,0.16736159264174033
188.591797,0.17684023857363504
190.511719,0.18631259910318373
192.429688,0.19563863748299729
194.347656,0.20468956912808037
196.265625,0.21332331332772123
198.183594,0.2213993078628105
200.099609,0.22877698444784111
202.015625,0.23534459885813785
203.933594,0.2410052802136174
205.847656,0.24566402716613134
207.763672,0.24928429144020245
209.677734,0.25183587785795986
211.59375,0.2533318889030398
213.507812,0.25380761636634036
215.419922,0.25333307170116964
217.333984,0.25199975747122105
219.246094,0.24992390207111229
221.158203,0.24723388674408805
223.070312,0.24406910001036922
224.982422,0.24057292987335427
226.892578,0.23689062286704934
228.802734,0.23315227500612853
230.712891,0.22947912034421505
232.623047,0.22597618261304053
234.533203,0.22272935382604464
236.441406,0.21980637440138207
238.349609,0.21724684160394359
240.257812,0.21507235344791578
242.166016,0.21328409815777916
244.072266,0.21186589509113044
245.980469,0.21078107937981488
247.886719,0.20998454750830325
249.791016,0.20941752807640254
251.697266,0.20901322165624786
253.601562,0.20870215000511783
255.507812,0.2084113045983978
257.412109,0.20806962761721687
259.314453,0.2076087145980087
261.21875,0.20696393299872745
263.121094,0.20607958508051608
265.023438,0.2049060387258437
266.925781,0.20340309273715823
268.828125,0.2015400625881473
270.728516,0.1992986138224858
272.628906,0.19666608198896512
274.529297,0.19364109679429597
276.429688,0.1902313676570917
278.330078,0.1864529672559778
280.228516,0.18233383860910204
282.126953,0.1779001765542913
284.025391,0.17318715478502725
285.923828,0.1682340651851521
287.822266,0.16308309713480498
289.71875,0.15778369710460516
291.615234,0.15237503581307274
293.511719,0.14690103917840014
295.40625,0.1414099147232265
297.302734,0.1359306521538041
299.197266,0.13051193040625275
301.091797,0.12518207486819283
302.986328,0.11997129288791662
304.878906,0.11491092344209371
306.773438,0.11001258128928224
308.666016,0.10530429803765536
310.558594,0.10079485438404272
312.449219,0.09649870942944658
314.341797,0.09241358958883893
316.232422,0.08855131874769283
318.123047,0.08490811126279497
320.013672,0.08148203049950224
321.904297,0.07826903429665513
323.792969,0.07526634151303095
325.681641,0.07246337621777994
327.570312,0.06985193320072758
329.458984,0.06742304047643999
331.347656,0.0651672315133282
333.234375,0.06307685257307512
335.121094,0.061139704949250376
337.007812,0.05934610190320056
338.894531,0.05768657628308273
340.779297,0.056153516569036485
342.664062,0.05473642917419071
344.548828,0.05342706152824075
346.433594,0.05221765770696961
348.318359,0.05110097686063854
350.201172,0.050071325480474806
352.085938,0.04912037674536113
353.96875,0.0482444296939308
355.849609,0.0474380895450997
357.732422,0.046694990232860265
359.613281,0.04601244498253118
361.494141,0.04538585892041834
363.375,0.04481185643811742
365.255859,0.044287457553156655
367.134766,0.04381053586699593
369.015625,0.04337787353188898
370.894531,0.042988506408193544
372.773438,0.04264046077550585
374.650391,0.04233289901367697
376.529297,0.042064420715928016
378.40625,0.04183522320034315
380.283203,0.041645079169512614
382.160156,0.04149454322249179
384.035156,0.041384814787248855
385.912109,0.041317418124129555
387.787109,0.041295019308802736
389.662109,0.04132099894515373
391.537109,0.04140001544813087
393.410156,0.041538054529565036
395.283203,0.0417432430107244
397.15625,0.04202616049062191
399.029297,0.04240066229511842
400.902344,0.04288487982450564
402.773438,0.04350174668902577
404.646484,0.0442831573982586
406.517578,0.04526649740498412
408.388672,0.04650105691897033
410.257812,0.04804330914318392
412.128906,0.04996246074818261
413.998047,0.05232290481580823
415.867188,0.05518751344073371
417.736328,0.05859523405078398
419.603516,0.0625393938359209
421.470703,0.06695960570477287
423.339844,0.07171960519160833
425.207031,0.07658440583050798
427.072266,0.08125677080836215
428.939453,0.08540741453065019
430.804688,0.0886946288981865
432.669922,0.09085160443963863
434.535156,0.09171902103586721
436.400391,0.09128245173131103
438.263672,0.0896799316197978
440.126953,0.08717334332376622
441.990234,0.08410507760866315
443.853516,0.08084310959561031
445.716797,0.07772979813759928
447.578125,0.07504757395555597
449.439453,0.07299225418479462
451.300781,0.07168355107135496
453.162109,0.07117468485705178
455.023438,0.07147153171441244
456.882812,0.07255060322497418
458.742188,0.0743782520322214
460.601562,0.07692044540660181
462.460938,0.08014904207489261
464.318359,0.0840399315675893
466.177734,0.08859020503928856
468.035156,0.09378644315537413
469.892578,0.09963451390318864
471.748047,0.10613188336192049
473.605469,0.11329814297581545
475.460938,0.12112364510803475
477.316406,0.1296189777144731
479.171875,0.13878421898010931
481.025391,0.1486042505126643
482.880859,0.15908986993603363
484.734375,0.17020282397032493
486.587891,0.1819306104514603
488.441406,0.19424245782997304
490.292969,0.20708580782135808
492.146484,0.2204407866657508
493.998047,0.23422406183028094
495.849609,0.24838605509711878
497.701172,0.26285543822364504
499.550781,0.2775377411800823
501.402344,0.2923783164156957
503.251953,0.30725423081440106
505.101562,0.32208448131009515
506.949219,0.33675314594409284
508.798828,0.3511881226776854
510.646484,0.36525474393592505
512.494141,0.37886456639336924
514.341797,0.3919155557788905
516.189453,0.40430912348887016
518.035156,0.41593982073117286
519.880859,0.4267344072699575
521.728516,0.4366241846396934
523.572266,0.4455101015127504
525.417969,0.45336347221739093
527.261719,0.46012101264405675
529.107422,0.4657629113261504
530.951172,0.4702563732312476
532.792969,0.47359779986345885
534.636719,0.475800765892886
536.478516,0.47688064591586626
538.322266,0.4768729833794011
540.164062,0.4758235082829696
542.003906,0.4737926975218056
543.845703,0.47084388735483457
545.685547,0.467059970476289
547.525391,0.4625224374899881
549.365234,0.457321362861221
551.205078,0.4515509960619365
553.044922,0.44530797658300186
554.882812,0.4386966985797769
556.720703,0.43180642887019927
558.558594,0.4247299018368944
560.396484,0.4175553115463213
562.232422,0.4103724646727901
564.068359,0.4032484662927786
565.90625,0.3962423313313378
567.740234,0.3894333840529377
569.576172,0.38284707346123403
571.412109,0.3765282499476224
573.246094,0.37051053122094396
575.080078,0.36480447088513007
576.914062,0.3594180476539818
578.746094,0.3543556992463016
580.580078,0.3495979574273111
582.412109,0.3451394432404689
584.244141,0.3409537773823217
586.076172,0.3370154564729767
587.90625,0.33329982868504776
589.738281,0.329768873291671
591.568359,0.32639984851961507
593.398438,0.32315976811840663
595.228516,0.3200218922394878
597.056641,0.31696624699321785
598.886719,0.3139676879456351
600.714844,0.31101946000041575
602.542969,0.30811132738310465
604.371094,0.3052429451993891
606.197266,0.302423957016779
608.025391,0.29966212809981285
609.851562,0.29698422633164434
611.677734,0.2944149584129921
613.503906,0.2919884351678905
615.328125,0.2897468350305388
617.152344,0.2877321652487327
618.978516,0.28599126414771686
620.800781,0.2845802776816836
622.625,0.28354606652290176
624.449219,0.28294119374884574
626.271484,0.2828129139108394
628.09375,0.28320125486217235
629.916016,0.28413743599455293
631.738281,0.2856390737912241
633.558594,0.28770329856417776
635.380859,0.2903115767269258
637.201172,0.2934082633280381
639.021484,0.29691487123014454
640.839844,0.30071290496232395
642.660156,0.3046632799020119
644.478516,0.30858145323568986
646.296875,0.3122752261240562
648.115234,0.3155412159946378
649.933594,0.3181867074507863
651.75,0.3200480704552379
653.566406,0.32101657986840476
655.382812,0.32104476423384576
657.199219,0.3201571365278265
659.015625,0.31844876683438345
660.830078,0.3160780831803246
662.646484,0.31323945255677943
664.460938,0.3101626630752906
666.275391,0.30707374184530084
668.087891,0.3041937556491003
669.902344,0.30171215320825684
671.714844,0.29980055865338706
673.527344,0.298590494192734
675.339844,0.29818529421309964
677.150391,0.298658830726972
678.962891,0.30006226762826427
680.773438,0.3024221227084774
682.583984,0.3057523675552465
684.394531,0.31005297450753533
686.205078,0.3153138956293164
688.013672,0.3215102884934043
689.822266,0.3286240096387944
691.630859,0.336627444199976
693.439453,0.3454896975391617
695.248047,0.3551772741014077
697.054688,0.36564283564922345
698.861328,0.3768590771935063
700.667969,0.3887870271122387
702.474609,0.4013860961155128
704.28125,0.4146141435579553
706.085938,0.4284121773974327
707.890625,0.4427489181565665
709.695312,0.45757747040003977
711.5,0.4728492476759901
713.304688,0.48851394231210105
715.107422,0.5045020640519136
716.910156,0.5207768881272055
718.712891,0.5372833471602887
720.515625,0.5539648405850817
722.318359,0.57076340708696
724.119141,0.5876015723226202
725.919922,0.6044373790360287
727.720703,0.621209888053594
729.521484,0.637857511677994
731.322266,0.6543182802056008
733.121094,0.6705126499219148
734.919922,0.6863968619090461
736.71875,0.701909652715616
738.517578,0.7169905453757093
740.316406,0.7315801778289753
742.113281,0.7456057142676042
743.910156,0.7590273374832349
745.707031,0.7717912438491622
747.503906,0.7838461048312143
749.300781,0.7951434095293183
751.095703,0.8056268482744341
752.890625,0.8152673878692406
754.685547,0.8240270933082486
756.480469,0.8318721413283275
758.275391,0.8387731263865162
760.068359,0.844699434203368
761.861328,0.849639473009923
763.654297,0.8535788781372216
765.447266,0.8565088304848022
767.240234,0.8584263301670527
769.03125,0.8593340399696416
770.822266,0.8592440626799855
772.613281,0.8581725402264228
774.404297,0.8561426217826694
776.195312,0.8531848347237014
777.984375,0.8493421452002675
779.773438,0.8446582112803908
781.5625,0.8391881195786391
783.351562,0.8329962057620842
785.140625,0.8261566582533819
786.927734,0.8187625133596336
788.714844,0.8109020973386186
790.501953,0.8026825084985966
792.289062,0.7942229025734813
794.076172,0.7856547230407651
795.861328,0.7771308308014914
797.646484,0.768796485971922
799.433594,0.760807940046051
801.216797,0.7533633055783816
803.001953,0.7466145783579673
804.785156,0.7407538993203665
806.570312,0.7359408740448876
808.353516,0.7323463509060071
810.136719,0.7301051607537306
811.917969,0.7293303963919328
813.701172,0.7300976245314628
815.482422,0.7324392459623926
817.263672,0.7363403764543336
819.044922,0.7417337160511415
820.824219,0.7484909824370687
822.605469,0.7564573497258944
824.384766,0.765403464426714
826.164062,0.775094045006128
827.943359,0.7852678444528237
829.722656,0.7956615710796173
831.5,0.806015135784186
833.279297,0.8161327236406434
835.056641,0.8258169025301021
836.832031,0.8349463509016527
838.609375,0.8434748291271088
840.386719,0.8513811590086592
842.162109,0.8586963800622898
843.9375,0.8655072933292828
845.712891,0.8719173108733006
847.488281,0.8780405085899055
849.261719,0.883980262555167
851.035156,0.88983553542068
852.810547,0.8956772445267702
854.582031,0.9015165350100135
856.355469,0.907366880422647
858.128906,0.913181664101416
859.900391,0.9188856867989506
861.671875,0.924396188849312
863.443359,0.929613678306157
865.214844,0.9344391352758202
866.984375,0.9387799346651281
868.755859,0.9425776388745466
870.525391,0.945783040151479
872.294922,0.9483914445643246
874.064453,0.9504269610247746
875.832031,0.95194436567378
877.601562,0.9530312310475132
879.369141,0.9537909030503406
881.136719,0.9543437887898629
882.904297,0.9548126758010235
884.669922,0.9553135420935819
886.4375,0.9559482130652645
888.203125,0.9567918675947396
889.96875,0.957891633445757
891.734375,0.9592610409585696
893.498047,0.9608793519479443
895.263672,0.9627036376843682
897.027344,0.9646642114939349
898.791016,0.9666898848145636
900.554688,0.9687136182216968
902.316406,0.970685713560237
904.080078,0.9725930327841646
905.841797,0.974448270391962
907.603516,0.9763000979139809
909.365234,0.9782082705251042
911.126953,0.9802171134426904
912.886719,0.9823142158622138
914.646484,0.9843939954327554
916.408203,0.9862135323042062
918.166016,0.9873628283458242
919.925781,0.9872871807351087
921.685547,0.9853120275043555
923.443359,0.9807386719757747
925.201172,0.9729355016827662
926.958984,0.9614448348537471
928.716797,0.9460341020270439
930.472656,0.9266815211439071
932.230469,0.9033448050350389
933.986328,0.8759275069084509
935.742188,0.843970015511816
937.496094,0.8068409833973849
939.251953,0.7638348292853427
941.005859,0.7149276954657853
942.761719,0.6607855324414557
944.515625,0.6032965712480882
946.267578,0.5449455809285221
948.021484,0.48823965474386105
949.773438,0.4355296557220783
951.527344,0.3881483424031247
953.279297,0.34679584665056595
955.029297,0.31135060982847906
956.78125,0.2811960212294981
958.533203,0.25564672910119896
960.283203,0.23397880441212757
962.033203,0.21549080365221362
963.783203,0.19961761819570842
965.53125,0.18591327781060107
967.28125,0.17397802512522337
969.029297,0.16354350181975946
970.777344,0.15435891858398212
972.525391,0.14623339168477054
974.273438,0.13901190777035818
976.019531,0.1325745859098868
977.767578,0.12680292285667116
979.513672,0.12162384504683288
981.259766,0.11695912642082057
983.005859,0.1127491008512832
984.75,0.10894775614933162
986.496094,0.105504483153141
988.240234,0.10239149806779978
989.984375,0.09957475201073603
991.728516,0.09702882077414973
993.470703,0.09473457081942266
995.214844,0.09266855333901251
996.957031,0.09081987397977537
998.699219,0.08917291395941855
1000.441406,0.087716473069447
1002.181641,0.08644234770379301
1003.923828,0.08533955361731814
1005.664062,0.08440360926251429
1007.404297,0.08362718406516458
1009.144531,0.08300503676921414
1010.884766,0.08253250599131336
1012.623047,0.08220563886465974
1014.363281,0.08201973391289744
1016.101562,0.08197137818102167
1017.839844,0.08205645897968593
1019.576172,0.08227071935036002
1021.314453,0.08261047090460323
1023.050781,0.08307045616751746
1024.787109,0.08364607742088573
1026.523438,0.08433192579099522
1028.259766,0.08512202414419925
1029.996094,0.08600977454742995
1031.730469,0.08698676745153734
1033.464844,0.0880460236936634
1035.199219,0.0891789211091701
1036.933594,0.09037614406528972
1038.667969,0.09162770426701142
1040.400391,0.09292149898781109
1042.134766,0.09424925041995139
1043.867188,0.09559627921814116
1045.599609,0.0969519590619172
1047.330078,0.09830234185354378
1049.0625,0.09963783717379794
1050.792969,0.10094272005848896
1052.523438,0.10220584091268059
1054.253906,0.10341470443843048
1055.984375,0.10455713088623364
1057.712891,0.10562024215661976
1059.443359,0.10659532441665881
1061.171875,0.1074698140298392
1062.900391,0.10823537523041481
1064.628906,0.10888350784217249
1066.355469,0.10940629362283008
1068.083984,0.10979871566755837
1069.810547,0.11005497200408271
1071.537109,0.1101720060979854
1073.263672,0.1101476238354086
1074.990234,0.10998103624617178
1076.714844,0.10967329184277354
1078.439453,0.10922628980996993
1080.164062,0.10864338835934255
1081.888672,0.10792924142663202
1083.613281,0.10708972659444782
1085.337891,0.10613185154873539
1087.060547,0.10506492127324416
1088.783203,0.10389682846858592
1090.505859,0.10263726141701636
1092.228516,0.10129654727004742
1093.951172,0.09988551359199006
1095.671875,0.09841703520971934
1097.392578,0.09690090002366569
1099.113281,0.09534852442664338
1100.833984,0.09377125447667436
1102.554688,0.09218023497597277
1104.273438,0.09058809880887495
1105.992188,0.08900340193934635
1107.712891,0.08743420521767402
1109.429688,0.0858950264240941
1111.148438,0.08438909188316158
1112.867188,0.08292595570409841
1114.583984,0.08151419425784329
1116.300781,0.08015828207277674
1118.017578,0.0788635574681112
1119.734375,0.07763452858089648
1121.449219,0.07647616245775693
1123.166016,0.07538870773282731
1124.880859,0.07437675559159934
1126.595703,0.07344041400597323
1128.310547,0.07258039096921659
1130.025391,0.07179676513885727
1131.738281,0.07108980604154647
1133.451172,0.07045757301438513
1135.164062,0.06989861202090979
1136.876953,0.06941107788651825
1138.589844,0.0689927972441298
1140.302734,0.06864132646118892
1142.013672,0.06835430011082043
1143.724609,0.0681284732440839
1145.435547,0.0679609297149801
1147.146484,0.06784869088002646
1148.855469,0.06778879617507519
1150.566406,0.06777812725278858
1152.275391,0.06781377969534942
1153.984375,0.06789286383669287
1155.693359,0.06801262928561148
1157.402344,0.06817044443024625
1159.109375,0.06836357086981536
1160.816406,0.06858982321198295
1162.525391,0.06884732078473355
1164.230469,0.06913309527257601
1165.9375,0.06944620547530234
1167.644531,0.0697846248392579
1169.349609,0.07014636783118545
1171.054688,0.07053040759705781
1172.759766,0.07093549089747268
1174.464844,0.07136050614241146
1176.169922,0.0718044753429922
1177.873047,0.07226600728254778
1179.576172,0.07274486839525918
1181.28125,0.07324101420117146
1182.982422,0.07375219067783592
1184.685547,0.07427970276229853
1186.388672,0.07482262994795208
1188.089844,0.07538005850932436
1189.791016,0.0759524082713138
1191.492188,0.07653954882741126
1193.193359,0.07714140680595391
1194.892578,0.07775724532643151
1196.59375,0.07838850474112946
1198.292969,0.07903380224660825
1199.992188,0.07969395790797512
1201.691406,0.08036910854646566
1203.390625,0.0810594221838328
1205.087891,0.08176427267768684
1206.785156,0.08248466204113444
1208.482422,0.0832208307827492
1210.179688,0.08397303801387165
1211.876953,0.08474156092544427
1213.574219,0.08552669467291016
1215.269531,0.08632781512752069
1216.964844,0.08714613965810683
1218.660156,0.08798200304250856
1220.355469,0.08883575433612241
1222.050781,0.08970775221680602
1223.744141,0.09059733155303809
1225.4375,0.09150586509365388
1227.130859,0.09243374312246024
1228.824219,0.09338136547723441
1230.517578,0.09434913942190121
1232.210938,0.09533748321634042
1233.902344,0.09634564481777444
1235.59375,0.09737518473514822
1237.285156,0.0984265425261641
1238.976562,0.09950016493467362
1240.667969,0.10059650612231577
1242.357422,0.10171471839577623
1244.046875,0.10285651910951558
1245.736328,0.10402237749259047
1247.425781,0.10521276739794216
1249.115234,0.10642816663336538
1250.802734,0.10766760685614069
1252.492188,0.10893444066526431
1254.179688,0.1102262213461672
1255.867188,0.11154488271952112
1257.554688,0.11289090789079659
1259.240234,0.11426317102422373
1260.927734,0.11566533145644592
1262.613281,0.11709461523144273
1264.298828,0.11855309443271718
1265.984375,0.12004122696981037
1267.667969,0.12155768427901231
1269.353516,0.12310642055948634
1271.037109,0.12468426723500889
1272.720703,0.12629340750064988
1274.404297,0.12793422612134406
1276.087891,0.1296070871075113
1277.771484,0.13131232876978918
1279.453125,0.13304822948265424
1281.134766,0.13481702667196727
1282.816406,0.13661896352466177
1284.498047,0.13845424766266537
1286.179688,0.1403230405397971
1287.859375,0.14222322719792005
1289.541016,0.14415929164294802
1291.220703,0.14612674061190628
1292.900391,0.14812774931754097
1294.580078,0.1501621918147292
1296.257812,0.15222744915103548
1297.9375,0.154328055064403
1299.615234,0.1564587617174076
1301.292969,0.15862154322838407
1302.970703,0.16081584709221175
1304.646484,0.16303841173421554
1306.324219,0.1652936528537938
1308.0,0.16757543357637036
1309.675781,0.16988535456924825
1311.351562,0.17222227437538368
1313.027344,0.1745849129417104
1314.703125,0.1769718389184535
1316.376953,0.17937865043714127
1318.050781,0.18180637859835153
1319.724609,0.18425312049908868
1321.398438,0.18671680284374342
1323.072266,0.1891951707843079
1324.744141,0.1916828799888202
1326.417969,0.19418312596629203
1328.089844,0.19668727389922677
1329.761719,0.1991952488504719
1331.433594,0.2017038736555492
1333.103516,0.204206857426134
