Raman Shift (cm-1),Fitted Intensity
171.300781,0.027240669978688275
173.222656,0.02726690805047101
175.146484,0.02729349838066623
177.068359,0.027320392978079745
178.990234,0.027347624810490506
180.910156,0.027375171974155593
182.832031,0.02740309696106015
184.751953,0.02743134962037652
186.671875,0.027459964917743766
188.591797,0.02748894979484847
190.511719,0.027518311373646694
192.429688,0.027548026506622025
194.347656,0.02757813233045989
196.265625,0.027608636552301166
198.183594,0.027639547037077845
200.099609,0.02767083975009479
202.015625,0.027702554276866517
203.933594,0.027734732100383193
205.847656,0.027767282985003895
207.763672,0.027800314914654067
209.677734,0.02783376973207504
211.59375,0.027867725230533727
213.507812,0.027902121894949054
215.419922,0.02793696830107262
217.333984,0.027972345884598047
219.246094,0.02800819305953934
221.158203,0.028044556501083666
223.070312,0.028081447416301208
224.982422,0.0281188773438685
226.892578,0.028156819028444163
228.802734,0.028195322623268553
230.712891,0.028234400697582672
232.623047,0.028274066141569177
234.533203,0.028314332304018617
236.441406,0.028355170810308108
238.349609,0.028396636647973168
240.257812,0.02843874438912234
242.166016,0.028481509091210503
244.072266,0.0285249014198597
245.980469,0.02856902631429939
247.886719,0.02861380995590715
249.791016,0.02865926718678388
251.697266,0.0287055088269208
253.601562,0.0287524582435966
255.507812,0.028800230568113372
257.412109,0.028848747283197092
259.314453,0.028898025963029126
261.21875,0.028948188511961067
263.121094,0.028999153458122193
265.023438,0.02905099397398947
266.925781,0.029103732980355117
268.828125,0.029157394308970016
270.728516,0.029211946018191548
272.628906,0.02926746816201882
274.529297,0.029323987215438437
276.429688,0.02938153055785394
278.330078,0.029440126606602918
280.228516,0.02949974306673183
282.126953,0.029560470138644646
284.025391,0.029622339675209337
285.923828,0.02968538465977497
287.822266,0.029749639532028693
289.71875,0.02981507195584794
291.615234,0.02988178455816295
293.511719,0.02994981603491359
295.40625,0.030019134426232125
297.302734,0.030089924643071295
299.197266,0.030162084630781544
301.091797,0.030235732058442457
302.986328,0.03031091455011931
304.878906,0.0303876018522589
306.773438,0.030466004204787088
308.666016,0.03054601412163154
310.558594,0.03062776833618555
312.449219,0.030711239078109666
314.341797,0.030796661000295607
316.232422,0.030883922949723724
318.123047,0.03097318041329632
320.013672,0.031064505134775555
321.904297,0.031157972522899736
323.792969,0.03125356188228041
325.681641,0.03135145190159692
327.570312,0.031451730255990434
329.458984,0.03155448957879354
331.347656,0.03165982750001052
333.234375,0.031767734128077055
335.121094,0.03187842590531878
337.007812,0.03199201806220905
338.894531,0.03210863295820914
340.779297,0.032228274647024484
342.664062,0.0323511996887648
344.548828,0.03247755455633591
346.433594,0.03260749516378075
348.318359,0.032741187940189785
350.201172,0.032878666342231945
352.085938,0.0330204059928927
353.96875,0.03316631716003381
355.849609,0.033316605331554824
357.732422,0.03347181857642156
359.613281,0.03363188898565923
361.494141,0.03379725005011807
363.375,0.033968199655287835
365.255859,0.03414506198941441
367.134766,0.034327997030591854
369.015625,0.034517771066744994
370.894531,0.03471441323219522
372.773438,0.034918582666930945
374.650391,0.03513056862978978
376.529297,0.035351382628233514
378.40625,0.03558120016421929
380.283203,0.035820955936126074
382.160156,0.03607144845683743
384.035156,0.036333301834368587
385.912109,0.03660808833149638
387.787109,0.03689641007655083
389.662109,0.03719989840052963
391.537109,0.037520123581463026
393.410156,0.03785856057291546
395.283203,0.038217697634717045
397.15625,0.038600113548129346
399.029297,0.039008913359131564
400.902344,0.03944787748139126
402.773438,0.03992115022613616
404.646484,0.04043552872330194
406.517578,0.040997283342669104
408.388672,0.04161634958188173
410.257812,0.04230424684586007
412.128906,0.04307863115165104
413.998047,0.043959548035472897
415.867188,0.04497691285858193
417.736328,0.046169948392554845
419.603516,0.04758909269568564
421.470703,0.049302270132061274
423.339844,0.05139317602953879
425.207031,0.0539476498373494
427.072266,0.05704875938618903
428.939453,0.06075673647026359
430.804688,0.06505149836015696
432.669922,0.06982064006311067
434.535156,0.07481858026482821
436.400391,0.07967313492308029
438.263672,0.08392619184167503
440.126953,0.08713297589854617
441.990234,0.08894991137188236
443.853516,0.08922898398877624
445.716797,0.08805898913565188
447.578125,0.08574547728887363
449.439453,0.08272513995943392
451.300781,0.07946794556858364
453.162109,0.07638434386997918
455.023438,0.07376847648933327
456.882812,0.07178562477286239
458.742188,0.07048469376471624
460.601562,0.06984216991849086
462.460938,0.06979579416082642
464.318359,0.07027236279188835
466.177734,0.07120789771375084
468.035156,0.072551163891447
469.892578,0.07427136858838553
471.748047,0.07635119277373614
473.605469,0.07879451049468572
475.460938,0.08160792517514233
477.316406,0.08481603130486877
479.171875,0.08845023613942395
481.025391,0.09254558374970624
482.880859,0.09715768069878637
484.734375,0.10233027239986801
486.587891,0.10812681679192805
488.441406,0.11461025760814314
490.292969,0.12183764303578215
492.146484,0.1298888143876383
493.998047,0.1388076291701685
495.849609,0.1486551643864558
497.701172,0.15947201821257756
499.550781,0.17126798809700383
501.402344,0.18406728721620802
503.251953,0.19781300049051623
505.101562,0.21245372648573738
506.949219,0.22786948391169634
508.798828,0.2439477739841327
510.646484,0.2604670899069603
512.494141,0.2772156821095025
514.341797,0.29392864515572786
516.189453,0.31031227545423806
518.035156,0.3260385072156597
519.880859,0.3408091714662086
521.728516,0.35433252760129313
523.572266,0.3662894896426817
525.417969,0.3764852200032648
527.261719,0.38472118830435736
529.107422,0.3909080317978301
530.951172,0.3950049612998158
532.792969,0.39707368782890495
534.636719,0.3972552195012332
536.478516,0.39576010294275993
538.322266,0.39285878358962195
540.164062,0.38887594058694225
542.003906,0.38415718269410143
543.845703,0.3790361201946051
545.685547,0.3738439523846892
547.525391,0.36884963135789706
549.365234,0.3642613673256068
551.205078,0.36020571006390717
553.044922,0.3567180678514654
554.882812,0.3537434125767644
556.720703,0.35113253606640743
558.558594,0.3486661318164696
560.396484,0.3460708278225862
562.232422,0.34304789443438827
564.068359,0.33929245420082377
565.90625,0.33452364733343243
567.740234,0.32853580129823784
569.576172,0.3211617021855656
571.412109,0.3123425463981162
573.246094,0.302115863233485
575.080078,0.2905853862972114
576.914062,0.2779387510627313
578.746094,0.2644366421958177
580.580078,0.2503335522828322
582.412109,0.23595798548308958
584.244141,0.22158816689089478
586.076172,0.2074940318609617
587.90625,0.19392296418906907
589.738281,0.18103373212291596
591.568359,0.1689922146103555
593.398438,0.15787401571872475
595.228516,0.14772431821525603
597.056641,0.13855925357195412
598.886719,0.1303353745272236
600.714844,0.12302358118257792
602.542969,0.11655262466261655
604.371094,0.11085170726627451
606.197266,0.10585155234801154
608.025391,0.10146785351587985
609.851562,0.09763995095242288
611.677734,0.09429818523558102
613.503906,0.09138421127093098
615.328125,0.08884887944101118
617.152344,0.08664390411617812
618.978516,0.08472863115633904
620.800781,0.08307571573118648
622.625,0.08165150677954032
624.449219,0.08043453972465077
626.271484,0.07940651589023302
628.09375,0.0785504148623746
629.916016,0.0778539578437697
631.738281,0.07730802791580793
633.558594,0.07690702512503243
635.380859,0.07664752738646573
637.201172,0.07653146256695442
639.021484,0.07656482247746015
640.839844,0.0767604959265266
642.660156,0.07714224998011032
644.478516,0.07774876904169113
646.296875,0.07864738555649764
648.115234,0.07995503259714554
649.933594,0.08188314576334603
651.75,0.08481669418394314
653.566406,0.08943519793071118
655.382812,0.09671569625439004
657.199219,0.10745224747288096
659.015625,0.12095247896878966
660.830078,0.13373951986672875
662.646484,0.14058850795275954
664.460938,0.1382717104735489
666.275391,0.1285439840027454
668.087891,0.11648913521382774
669.902344,0.10639061830303313
671.714844,0.0997827078024428
673.527344,0.09617589695809502
675.339844,0.09457268479726884
677.150391,0.09419324355608642
678.962891,0.09457316415275813
680.773438,0.09546048071645834
682.583984,0.09672035934155082
684.394531,0.09827908807415275
686.205078,0.10009634906670964
688.013672,0.10214884766213878
689.822266,0.10442949292380925
691.630859,0.1069373290178847
693.439453,0.10967710218238796
695.248047,0.11265793836304129
697.054688,0.11588894399474564
698.861328,0.11938906044983731
700.667969,0.12317705280817164
702.474609,0.12727445112687982
704.28125,0.131705504256534
706.085938,0.13649175066398814
707.890625,0.14166728122860478
709.695312,0.1472642010826831
711.5,0.15331716164318365
713.304688,0.15986323150588536
715.107422,0.1669337451371777
716.910156,0.17457662743680097
718.712891,0.18283453613421147
720.515625,0.19175113520714016
722.318359,0.2013704549000924
724.119141,0.21172440334583179
725.919922,0.22286494386636937
727.720703,0.2348313861682039
729.521484,0.24765905022375473
731.322266,0.26137776493001286
733.121094,0.27599380147747193
734.919922,0.2915352227665851
736.71875,0.3080049169151838
738.517578,0.32539310059595594
740.316406,0.34367545331319194
742.113281,0.36279013376100794
743.910156,0.38269820766645307
745.707031,0.4033222588819881
747.503906,0.42456481010335134
749.300781,0.4463078168253305
751.095703,0.46838851931131104
752.890625,0.49067229779183913
754.685547,0.5129825503693979
756.480469,0.535126003175727
758.275391,0.55689531735161
760.068359,0.578049703594143
761.861328,0.5983887818882356
763.654297,0.6176856775014411
765.447266,0.6357157721075641
767.240234,0.6522617260446185
769.03125,0.667103471970081
770.822266,0.680073103036014
772.613281,0.6910061133003388
774.404297,0.6997646739960222
776.195312,0.7062413995929144
777.984375,0.7103592630651065
779.773438,0.7120885948657424
781.5625,0.711428267809453
783.351562,0.7084142945829441
785.140625,0.7031191108865332
786.927734,0.6956592129884431
788.714844,0.6861689752154219
790.501953,0.6748161039004228
792.289062,0.6617931099990325
794.076172,0.6473129080047109
795.861328,0.6316218825925984
797.646484,0.6149436443900216
799.433594,0.5975035460074294
801.216797,0.5796059676323824
803.001953,0.5614363003059526
804.785156,0.5432708097334953
806.570312,0.525296914858366
808.353516,0.5077685753681448
810.136719,0.4908662130228691
811.917969,0.4747915291676389
813.701172,0.45967722065695893
815.482422,0.4457072284312779
817.263672,0.432998230372599
819.044922,0.42166733241506005
820.824219,0.4118252407518231
822.605469,0.40353500420303773
824.384766,0.3968835823066009
826.164062,0.39191401319541996
827.943359,0.38866329733632027
829.722656,0.3871518375858146
831.5,0.3873812508887688
833.279297,0.38933600852568045
835.056641,0.3929754314551224
836.832031,0.3982356555166661
838.609375,0.4050462040695475
840.386719,0.4132948335874064
842.162109,0.42283675113155017
843.9375,0.433520443901482
845.712891,0.4451598887216678
847.488281,0.4575443298467813
849.261719,0.4704265970324701
851.035156,0.4835698740963472
852.810547,0.4967257518781762
854.582031,0.5095820779683201
856.355469,0.5219143497133877
858.128906,0.5334503970755405
859.900391,0.5439403802464778
861.671875,0.5531871994509998
863.443359,0.5610172589017332
865.214844,0.5673017202047672
866.984375,0.5719591904531236
868.755859,0.5749798417520264
870.525391,0.5763972578139317
872.294922,0.5763173958832332
874.064453,0.5749023147876018
875.832031,0.5723740291573018
877.601562,0.5689957320531612
879.369141,0.5650846203445317
881.136719,0.5609768213205725
882.904297,0.5570280739152945
884.669922,0.5535980930439063
886.4375,0.551018561890094
888.203125,0.5495988834223392
889.96875,0.5495854465784255
891.734375,0.5511565315317208
893.498047,0.5543985107045176
895.263672,0.5593096205412242
897.027344,0.5657628224769331
898.791016,0.5735380678085367
900.554688,0.5823084436453861
902.316406,0.5916485337159807
904.080078,0.6010994105335793
905.841797,0.6101267926373393
907.603516,0.6182311928477706
909.365234,0.6249474950723045
911.126953,0.6298998014573252
912.886719,0.6328432370487456
914.646484,0.6337154435397636
916.408203,0.6326523427597154
918.166016,0.630029129012325
919.925781,0.626447587756693
921.685547,0.6227440979976042
923.443359,0.6199365201156811
925.201172,0.6191274615976542
926.958984,0.6213819995955593
928.716797,0.6275365505342122
930.472656,0.637962183734896
932.230469,0.6523941889392502
933.986328,0.6696774525822804
935.742188,0.6878299786473556
937.496094,0.7041071709844897
939.251953,0.7154248225169092
941.005859,0.7187402777612386
942.761719,0.7116858892070753
944.515625,0.6930195972172759
946.267578,0.6628961511196706
948.021484,0.6227171504884697
949.773438,0.5750995355044903
951.527344,0.5230563889492107
953.279297,0.46987686276717977
955.029297,0.418335451097712
956.78125,0.37040179140921564
958.533203,0.3274273200759967
960.283203,0.290003368007542
962.033203,0.2580489115847084
963.783203,0.23114694466205388
965.53125,0.2086980811523831
967.28125,0.18996628588056463
969.029297,0.17433640888053267
970.777344,0.16120603407811065
972.525391,0.15008991159276416
974.273438,0.14059542026578745
976.019531,0.13241986686854265
977.767578,0.1253010051005219
979.513672,0.11906413738841383
981.259766,0.11355133161856794
983.005859,0.10864459259441236
984.75,0.10425461876353505
986.496094,0.10029614345919531
988.240234,0.09671691997412618
989.984375,0.09346231721942248
991.728516,0.09049108714292783
993.470703,0.08777183533038031
995.214844,0.0852697413991267
996.957031,0.08296624123029185
998.699219,0.08083795317009944
1000.441406,0.07886746884552885
1002.181641,0.07704189157149992
1003.923828,0.07534440830516127
1005.664062,0.07376793537138146
1007.404297,0.07230116718282152
1009.144531,0.07093610703361605
1010.884766,0.069665912279118
1012.623047,0.06848603260325144
1014.363281,0.0673888805319751
1016.101562,0.06637277471029161
1017.839844,0.06543299215586844
1019.576172,0.0645676400583614
1021.314453,0.06377249628238063
1023.050781,0.06304756342995163
1024.787109,0.06239055679504355
1026.523438,0.06180050193680151
1028.259766,0.061276752407110904
1029.996094,0.06081893824156786
1031.730469,0.060427322257162595
1033.464844,0.0601013903150037
1035.199219,0.05984130893372261
1036.933594,0.05964732282343408
1038.667969,0.059519703356896374
1040.400391,0.05945872724531227
1042.134766,0.05946442338717533
1043.867188,0.059536812752107905
1045.599609,0.059675712206461756
1047.330078,0.05988046358644158
1049.0625,0.0601508498126701
1050.792969,0.06048524496334027
1052.523438,0.06088251777398216
1054.253906,0.06134084239923317
1055.984375,0.06185793012407421
1057.712891,0.06243031892380369
1059.443359,0.06305600022100188
1061.171875,0.06372972963796324
1062.900391,0.06444781024609636
1064.628906,0.06520532399271434
1066.355469,0.0659959089823395
1068.083984,0.06681539347039273
1069.810547,0.06765549436186549
1071.537109,0.0685102551685408
1073.263672,0.06937242060157219
1074.990234,0.07023440453353837
1076.714844,0.07108740531590832
1078.439453,0.07192440048937128
1080.164062,0.07273729690118409
1081.888672,0.0735179962609024
1083.613281,0.07425848871265256
1085.337891,0.07495095354677336
1087.060547,0.07558716729720516
1088.783203,0.07616081533422477
1090.505859,0.07666524637287722
1092.228516,0.07709437590995931
1093.951172,0.07744276896370995
1095.671875,0.07770546907576746
1097.392578,0.07787901418747527
1099.113281,0.0779603438562618
1100.833984,0.07794728369717234
1102.554688,0.07783857512564982
1104.273438,0.07763417848098735
1105.992188,0.07733463016968946
1107.712891,0.07694095499561286
1109.429688,0.0764570676868981
1111.148438,0.07588474258007194
1112.867188,0.07522855459611595
1114.583984,0.0744941999050905
1116.300781,0.07368644671396912
1118.017578,0.07281134956285289
1119.734375,0.07187546159985694
1121.449219,0.07088689636295582
1123.166016,0.06985066578255879
1124.880859,0.06877659367101559
1126.595703,0.06767109953414659
1128.310547,0.06654177964501355
1130.025391,0.06539615954973756
1131.738281,0.0642429262957993
1133.451172,0.06308789016589346
1135.164062,0.06193785335301751
1136.876953,0.06079924369112339
1138.589844,0.05967806425901726
1140.302734,0.058579845614212846
1142.013672,0.057510810429741675
1143.724609,0.056474165168411854
1145.435547,0.05547383085557218
1147.146484,0.054513174054337546
1148.855469,0.05359602614860593
1150.566406,0.05272255289503728
1152.275391,0.05189647582194055
1153.984375,0.05111799377156617
1155.693359,0.05038784932900155
1157.402344,0.04970633992828188
1159.109375,0.049074050788500544
1160.816406,0.04848969481294261
1162.525391,0.04795187491648399
1164.230469,0.047461259565149023
1165.9375,0.04701474158292409
1167.644531,0.04661136047204829
1169.349609,0.046249792302870026
1171.054688,0.04592771338426745
1172.759766,0.0456431931515155
1174.464844,0.045394239760331155
1176.169922,0.045178830613990716
1177.873047,0.04499513228907474
1179.576172,0.044840878801286725
1181.28125,0.04471397919391168
1182.982422,0.04461292102630233
1184.685547,0.04453548152622546
1186.388672,0.04448004246296173
1188.089844,0.04444497666478359
1189.791016,0.044428655912884814
1191.492188,0.0444296303603284
1193.193359,0.04444655497503986
1194.892578,0.04447814585507117
1196.59375,0.04452334151536604
1198.292969,0.04458100782791336
1199.992188,0.044650258449330335
1201.691406,0.044730257327767024
1203.390625,0.04482025857011342
1205.087891,0.04491948175657991
1206.785156,0.045027445088357355
1208.482422,0.04514364277461307
1210.179688,0.045267636923004076
1211.876953,0.04539905220013248
1213.574219,0.04553757070963308
1215.269531,0.045682755166211585
1216.964844,0.04583454291170327
1218.660156,0.045992757844659914
1220.355469,0.046157262194110364
1222.050781,0.046327951790659835
1223.744141,0.04650454601723388
1225.4375,0.04668719125917951
1227.130859,0.04687586500709732
1228.824219,0.047070565968836894
1230.517578,0.047271311315408314
1232.210938,0.04747813537481302
1233.902344,0.04769083766228669
1235.59375,0.04790971520950261
1237.285156,0.04813484162032234
1238.976562,0.048366300998128574
1240.667969,0.048604187040519234
1242.357422,0.048848315555945834
1244.046875,0.04909906716070177
1245.736328,0.049356558503878115
1247.425781,0.04962091282435227
1249.115234,0.049892259505103335
1250.802734,0.05017040762020125
1252.492188,0.050456141649699804
1254.179688,0.05074894611657617
1255.867188,0.051049297600035376
1257.554688,0.051357351252385296
1259.240234,0.05167289649538453
1260.927734,0.05199682918061608
1262.613281,0.052328567783155776
1264.298828,0.05266865519646714
1265.984375,0.053017268382229005
1267.667969,0.053374169398690934
1269.353516,0.05374037142641964
1271.037109,0.054115214560348644
1272.720703,0.054499311112578004
1274.404297,0.0548928574974683
1276.087891,0.0552960541453016
1277.771484,0.05570910492164404
1279.453125,0.05613172125633468
1281.134766,0.05656458664507771
1282.816406,0.05700791438421022
1284.498047,0.05746192159472497
1286.179688,0.057926827421759954
1287.859375,0.05840229417074246
1289.541016,0.05888965210737009
1291.220703,0.059387994297568004
1292.900391,0.0598981077463042
1294.580078,0.060420220090566155
1296.257812,0.06095393216916658
1297.9375,0.06150071594237238
1299.615234,0.06205952771179397
1301.292969,0.06263122400565345
1302.970703,0.06321603001881508
1304.646484,0.06381346561971991
1306.324219,0.06442514412359841
1308.0,0.06504985692332393
1309.675781,0.0656885196650069
1311.351562,0.06634133768450752
1313.027344,0.06700850976954281
1314.703125,0.06769022534855805
1316.376953,0.06838584528126372
1318.050781,0.0690963248350648
1319.724609,0.06982182093189518
1321.398438,0.07056247694808822
