Raman Shift (cm-1),Fitted Intensity
150.119141,1.4989746721030406e-30
152.046875,2.9256695184440674e-30
153.974609,5.691394727709205e-30
155.900391,1.1027680296026354e-29
157.828125,2.1311008332519908e-29
159.753906,4.102027927029114e-29
161.679688,7.869710428566532e-29
163.603516,1.50383208491507e-28
165.529297,2.8661014070857947e-28
167.453125,5.440856454272553e-28
169.376953,1.0294642545064393e-27
171.300781,1.9414381634296285e-27
173.222656,3.646923306687014e-27
175.146484,6.832457673872321e-27
177.068359,1.2750316105749187e-26
178.990234,2.3715710861796306e-26
180.910156,4.3939067103081575e-26
182.832031,8.119136908576949e-26
184.751953,1.4944152478538528e-25
186.671875,2.7416171673666096e-25
188.591797,5.013216115031155e-25
190.511719,9.136926652742601e-25
192.429688,1.658803509542337e-24
194.347656,3.0016953566075935e-24
196.265625,5.413964588231028e-24
198.183594,9.732876284662257e-24
200.099609,1.7429569200796219e-23
202.015625,3.111086789336474e-23
203.933594,5.538240386098456e-23
205.847656,9.815278318595148e-23
207.763672,1.734873316801313e-22
209.677734,3.0546588186638505e-22
211.59375,5.364003957903593e-22
213.507812,9.383139180710394e-22
215.419922,1.6351007129263534e-21
217.333984,2.8416500585759407e-21
219.246094,4.919679960835588e-21
221.158203,8.489627996460505e-21
223.070312,1.460246407351513e-20
224.982422,2.503510582065865e-20
226.892578,4.2758386328501605e-20
228.802734,7.279168069995398e-20
230.712891,1.2351817653597238e-19
232.623047,2.0891443102483152e-19
234.533203,3.5220423515114324e-19
236.441406,5.915337416611025e-19
238.349609,9.902752389290875e-19
240.257812,1.6524326485755667e-18
242.166016,2.7484204993590736e-18
244.072266,4.5541773548246706e-18
245.980469,7.525815649256997e-18
247.886719,1.2389893071468237e-17
249.791016,2.032152087130387e-17
251.697266,3.3239944705132233e-17
253.601562,5.416787670461797e-17
255.507812,8.803107402894895e-17
257.412109,1.4253142040778435e-16
259.314453,2.2991640816748406e-16
261.21875,3.698626162881677e-16
263.121094,5.92786800724703e-16
265.023438,9.470146515966708e-16
266.925781,1.508046911275111e-15
268.828125,2.393719166446022e-15
270.728516,3.785539500965905e-15
272.628906,5.967400996285798e-15
274.529297,9.376607256608695e-15
276.429688,1.468619153200631e-14
278.330078,2.2928492788019143e-14
280.228516,3.566549189009346e-14
282.126953,5.530019436400435e-14
284.025391,8.546947312490007e-14
285.923828,1.316743326678799e-13
287.822266,2.0220745035854356e-13
289.71875,3.0939223687629465e-13
291.615234,4.718786939983341e-13
293.511719,7.173979277885823e-13
295.40625,1.086709002978578e-12
297.302734,1.641578838369881e-12
299.197266,2.4707947886359776e-12
301.091797,3.7070041777881805e-12
302.986328,5.543972093604817e-12
304.878906,8.26137831619323e-12
306.773438,1.2276515447554234e-11
308.666016,1.8177493735166388e-11
310.558594,2.6829174795605488e-11
312.449219,3.945687822667353e-11
314.341797,5.786637901948006e-11
316.232422,8.45619221947011e-11
318.123047,1.2318013226545695e-10
320.013672,1.788643407571445e-10
321.904297,2.5889528836276624e-10
323.792969,3.7340321314742497e-10
325.681641,5.368489282043469e-10
327.570312,7.693893728370835e-10
329.458984,1.0991589361692176e-09
331.347656,1.5652904749137156e-09
333.234375,2.2212267823505643e-09
335.121094,3.1420554718325124e-09
337.007812,4.43055063226776e-09
338.894531,6.227656174249791e-09
340.779297,8.722954646938253e-09
342.664062,1.2179469220709736e-08
344.548828,1.6951925086852513e-08
346.433594,2.3519902874452195e-08
348.318359,3.252952984136892e-08
350.201172,4.483344950021954e-08
352.085938,6.16165801971563e-08
353.96875,8.43874438111681e-08
355.849609,1.1517208236464459e-07
357.732422,1.5674233907128463e-07
359.613281,2.125775248172488e-07
361.494141,2.8739550160187655e-07
363.375,3.873236757982627e-07
365.255859,5.203549039409392e-07
367.134766,6.96667965890934e-07
369.015625,9.300706195168691e-07
370.894531,1.237397873648148e-06
372.773438,1.6411082892660716e-06
374.650391,2.169072563308381e-06
376.529297,2.8587228056508596e-06
378.40625,3.7547574085134787e-06
380.283203,4.916193019497542e-06
382.160156,6.41672127487586e-06
384.035156,8.346730394963806e-06
385.912109,1.0826210467471072e-05
387.787109,1.3994530779200734e-05
389.662109,1.8033509726952753e-05
391.537109,2.316552868388569e-05
393.410156,2.9657398472043353e-05
395.283203,3.7850076450180996e-05
397.15625,4.81552167765645e-05
399.029297,6.107490441067301e-05
400.902344,7.72191687325425e-05
402.773438,9.730300040057949e-05
404.646484,0.00012225754365683726
406.517578,0.00015309702990004423
408.388672,0.0001911188687309999
410.257812,0.00023778671282806895
412.128906,0.00029499672901931286
413.998047,0.0003647513519502008
415.867188,0.00044959880363606227
417.736328,0.0005524613023610258
419.603516,0.0006766058994871201
421.470703,0.0008260778948974995
423.339844,0.0010056484083899738
425.207031,0.0012202046679230375
427.072266,0.0014756550800094047
428.939453,0.001779407761833849
430.804688,0.0021386247379438423
432.669922,0.0025624052718715854
434.535156,0.0030606609535177355
436.400391,0.0036444906300091146
438.263672,0.00432548994179801
440.126953,0.005117887823761153
441.990234,0.006036750216106441
443.853516,0.007098599515636725
445.716797,0.008321451635494928
447.578125,0.009723268083007563
449.439453,0.011326226128212175
451.300781,0.01315279337808282
453.162109,0.015226867505810059
455.023438,0.01757369054055138
456.882812,0.020216776309237197
458.742188,0.023185876287833522
460.601562,0.026509264103883056
462.460938,0.030215828290039538
464.318359,0.03433019698824635
466.177734,0.03889015971977576
468.035156,0.04391480778637266
469.892578,0.04943649431077351
471.748047,0.05547506081590974
473.605469,0.0620678512982654
475.460938,0.06922323337822564
477.316406,0.07696712283588229
479.171875,0.08531529050641638
481.025391,0.09426961875036528
482.880859,0.10385590698541997
484.734375,0.11405563193251231
486.587891,0.12487436560189244
488.441406,0.13630157118349578
490.292969,0.14830695178817302
492.146484,0.16089128988778678
493.998047,0.1739960685179879
495.849609,0.18759451959239648
497.701172,0.20163907787272514
499.550781,0.21605886715703007
501.402344,0.2308212047860402
503.251953,0.2458243763326457
505.101562,0.2610061933838494
506.949219,0.2762663128250915
508.798828,0.29154691037409836
510.646484,0.3067206299480798
512.494141,0.32170436969808475
514.341797,0.3363956245378191
516.189453,0.3506897998919694
518.035156,0.3644671053123823
519.880859,0.37763805189103933
521.728516,0.39011225733071164
523.572266,0.40175121666594094
525.417969,0.4124974179336251
527.261719,0.42223811718289866
529.107422,0.4309107017784154
530.951172,0.4384217379250203
532.792969,0.4447090963501592
534.636719,0.449730348436441
536.478516,0.45343004790306357
538.322266,0.45578272687638866
540.164062,0.4567621738507038
542.003906,0.4563638953472194
543.845703,0.4545906500716505
545.685547,0.4514621845187574
547.525391,0.44700545165057665
549.365234,0.4412602694815093
551.205078,0.4342775620349973
553.044922,0.42611862650616716
554.882812,0.41686462422430487
556.720703,0.40658645082095995
558.558594,0.3953703570542797
560.396484,0.38330868481113156
562.232422,0.3705125582707828
564.068359,0.35706997942106733
565.90625,0.3430683931713097
567.740234,0.32865672884432906
569.576172,0.31389277646106883
571.412109,0.2988933635029656
573.246094,0.2837736523211021
575.080078,0.26861287592223804
576.914062,0.25350151147980776
578.746094,0.238540497489867
580.580078,0.22377691123550794
582.412109,0.2093144235337298
584.244141,0.1952023187855338
586.076172,0.18149842889514936
587.90625,0.16826692686670675
589.738281,0.15552231200273062
591.568359,0.1433269707385523
593.398438,0.13169492514910722
595.228516,0.12064704131720755
597.056641,0.11020829696891062
598.886719,0.10036424656589275
600.714844,0.09113793170803493
602.542969,0.08251524448837248
604.371094,0.0744881345037632
606.197266,0.06705197876573459
608.025391,0.06017496091956972
609.851562,0.053852799828791785
611.677734,0.04805634147909897
613.503906,0.042762079271175084
615.328125,0.03794990345609744
617.152344,0.0335879250075954
618.978516,0.029645593035935155
620.800781,0.026108166816579605
622.625,0.022937082518749263
624.449219,0.02011027817891407
626.271484,0.01760500105952864
628.09375,0.015393876257308477
629.916016,0.013453978646093592
631.738281,0.011763799005047804
633.558594,0.010304836479494634
635.380859,0.009055709349968525
637.201172,0.008002634249507985
639.021484,0.007129554658413616
640.839844,0.006424419149288848
642.660156,0.005874923208643968
644.478516,0.005473411004237338
646.296875,0.00521233741622449
648.115234,0.005086785412213081
649.933594,0.005093795318274161
651.75,0.005232140654411925
653.566406,0.005502692743563785
655.382812,0.0059083139768816885
657.199219,0.006453783668787544
659.015625,0.0071457837056479725
660.830078,0.007991887333777663
662.646484,0.009004346043169166
664.460938,0.01019324038321978
666.275391,0.011573624937992102
668.087891,0.013159507811890465
669.902344,0.014971855208397347
671.714844,0.017025959498353452
673.527344,0.019344423465888654
675.339844,0.021949536962161908
677.150391,0.024861682762727908
678.962891,0.02811210686710265
680.773438,0.031719868853661556
682.583984,0.03571529000626945
684.394531,0.04012614925071412
686.205078,0.04498076318425266
688.013672,0.05030173109615555
689.822266,0.05612257283555081
691.630859,0.0624715126219808
693.439453,0.06937614820560041
695.248047,0.07686306523216749
697.054688,0.08494838435361458
698.861328,0.09366318603919738
700.667969,0.10302857479643218
702.474609,0.11306296691473927
704.28125,0.12378167855153528
706.085938,0.13518371164262788
707.890625,0.14728794267643386
709.695312,0.1600975841215023
711.5,0.1736109599632317
713.304688,0.18782108543208118
715.107422,0.20269882618777185
716.910156,0.2182406150943715
718.712891,0.23442163015950335
720.515625,0.2512105441856354
722.318359,0.2685694181243325
724.119141,0.2864339455382687
725.919922,0.30477136869084726
727.720703,0.3235238190729743
729.521484,0.3426269446263936
731.322266,0.3620101842678731
733.121094,0.3815757492991806
734.919922,0.40126293147616837
736.71875,0.42098526020468097
738.517578,0.4406520242213717
740.316406,0.4601689875015733
742.113281,0.4794184354540238
743.910156,0.4983231641015806
745.707031,0.5167837729920837
747.503906,0.5347009455249475
749.300781,0.5519764857480021
751.095703,0.5684968466687841
752.890625,0.5841887405209224
754.685547,0.5989640842886399
756.480469,0.6127402158178105
758.275391,0.6254409407881766
760.068359,0.6369856015799711
761.861328,0.6473285184990634
763.654297,0.6564188303663172
765.447266,0.66421572364276
767.240234,0.6706891101015922
769.03125,0.6758153632153018
770.822266,0.6795952567857687
772.613281,0.6820338328513642
774.404297,0.6831483712764237
776.195312,0.6829684359793649
777.984375,0.6815380177792635
779.773438,0.6789111703047459
781.5625,0.6751529928489175
783.351562,0.6703396173703863
785.140625,0.6645575679929262
786.927734,0.6579107082534431
788.714844,0.6504977789103225
790.501953,0.6424310530419689
792.289062,0.6338294252388829
794.076172,0.6248172574222578
795.861328,0.6155334237660403
797.646484,0.6060993850187014
799.433594,0.5966375566721517
801.216797,0.5873118351004089
803.001953,0.5782231964144806
804.785156,0.5695206547068413
806.570312,0.56131068567708
808.353516,0.5537315365940996
810.136719,0.5468878060871002
811.917969,0.5408919449524301
813.701172,0.5358284979562833
815.482422,0.5317965055832814
817.263672,0.5288672385261981
819.044922,0.5271067014035683
820.824219,0.5265687446148193
822.605469,0.527293446869192
824.384766,0.5293073259659424
826.164062,0.5326251308930889
827.943359,0.5372478867122114
829.722656,0.5431628970115062
831.5,0.550335239139439
833.279297,0.558740878466075
835.056641,0.5683084979363467
836.832031,0.5789688616751505
838.609375,0.5906679350420946
840.386719,0.6033056133047541
842.162109,0.6167670992412351
843.9375,0.6309569282973834
845.712891,0.64575761255349
847.488281,0.6610441688324095
849.261719,0.676668005981488
851.035156,0.6925098894463817
852.810547,0.7084479859162971
854.582031,0.7242882018887423
856.355469,0.7399410335442418
858.128906,0.7552478776721254
859.900391,0.7700544252954468
861.671875,0.7842444021349013
863.443359,0.7976909215561618
865.214844,0.8102755537868606
866.984375,0.8218782262862245
868.755859,0.8324297228521162
870.525391,0.8418273913422316
872.294922,0.8500219970675378
874.064453,0.8569726237949288
875.832031,0.8626560655231055
877.601562,0.8670933062636602
879.369141,0.8703116227454128
881.136719,0.8723846888708305
882.904297,0.8734136482411874
884.669922,0.8735343653122086
886.4375,0.8729173679891686
888.203125,0.8717680947547819
889.96875,0.8703219724824157
891.734375,0.8688426327781843
893.498047,0.8676167866733282
895.263672,0.8669409316438575
897.027344,0.8671189266234836
898.791016,0.8684429691075667
900.554688,0.8711833682208451
902.316406,0.875565961106131
904.080078,0.8817770013027044
905.841797,0.8899078724424921
907.603516,0.8999831927430014
909.365234,0.9119224637240059
911.126953,0.9255361735139831
912.886719,0.9405031174663239
914.646484,0.9564204049383548
916.408203,0.9727808718677994
918.166016,0.988908609897282
919.925781,1.004158890577448
921.685547,1.0177608568263152
923.443359,1.0289264676896086
925.201172,1.036905159789416
926.958984,1.0409722807736803
928.716797,1.0404792662032147
930.472656,1.0348946548503621
932.230469,1.0238012099905038
933.986328,1.0069762338715973
935.742188,0.9843344182534738
937.496094,0.9560113801429535
939.251953,0.9222191041414285
941.005859,0.8834703475125029
942.761719,0.8402614023342803
944.515625,0.7933890990509321
946.267578,0.7436531573253203
948.021484,0.6917861738573379
949.773438,0.6387673432430465
951.527344,0.5853319927746
953.279297,0.5324095089784667
955.029297,0.4807390004574544
956.78125,0.4308577725993727
958.533203,0.38337402722148883
960.283203,0.3387731924634764
962.033203,0.2973219835912268
963.783203,0.2592291895932274
965.53125,0.22463506425178512
967.28125,0.19347128727154086
969.029297,0.16573517697439777
970.777344,0.1412513058095165
972.525391,0.11982950651723909
974.273438,0.10124286772558025
976.019531,0.08525793719099246
977.767578,0.0715782331396419
979.513672,0.05997331811712129
981.259766,0.050173419700299926
983.005859,0.04193905673999417
984.75,0.03505587120506574
986.496094,0.029308021340371224
988.240234,0.024530184468702813
989.984375,0.020559323022511452
991.728516,0.017260657152127636
993.470703,0.014522009935099498
995.214844,0.012240351018189542
996.957031,0.010340001519141695
998.699219,0.008751328429496082
1000.441406,0.007419373215029036
1002.181641,0.006300334782984634
1003.923828,0.0053551056185911486
1005.664062,0.004556084411016462
1007.404297,0.0038779757785731084
1009.144531,0.0033011158079602134
1010.884766,0.002809435824087719
1012.623047,0.002390181225175857
1014.363281,0.002031528538183618
1016.101562,0.00172525291073625
1017.839844,0.001463370016162
1019.576172,0.0012397514719548473
1021.314453,0.0010485049542153593
1023.050781,0.0008854713232382917
1024.787109,0.0007464901946028708
1026.523438,0.000628182985808826
1028.259766,0.0005276360881002458
1029.996094,0.00044233202992718815
1031.730469,0.0003701684468918203
1033.464844,0.0003091644444445209
1035.199219,0.00025769705137157256
1036.933594,0.00021436409606118376
1038.667969,0.0001779557617952247
1040.400391,0.00014746131337858238
1042.134766,0.00012191672229692594
1043.867188,0.00010061242440969221
1045.599609,8.286081451634291e-05
1047.330078,6.811637345523494e-05
1049.0625,5.586836410794836e-05
1050.792969,4.573896483864554e-05
1052.523438,3.736940014254431e-05
1054.253906,3.046882622239615e-05
1055.984375,2.479166663872766e-05
1057.712891,2.0135848576664207e-05
1059.443359,1.631721947547401e-05
1061.171875,1.3199068134164892e-05
1062.900391,1.0655236335641006e-05
1064.628906,8.584443567146153e-06
1066.355469,6.904108146356922e-06
1068.083984,5.540514222888481e-06
1069.810547,4.438919820046455e-06
1071.537109,3.5498880367438647e-06
1073.263672,2.834074143631206e-06
1074.990234,2.2591281431238322e-06
1076.714844,1.7989804523859962e-06
1078.439453,1.4312717568815758e-06
1080.164062,1.1383455253612463e-06
1081.888672,9.058331481904868e-07
1083.613281,7.220771168386769e-07
1085.337891,5.776500566963003e-07
1087.060547,4.6506949568062214e-07
1088.783203,3.780796236731933e-07
1090.505859,3.118356601341345e-07
1092.228516,2.624981656272365e-07
1093.951172,2.2705222275029424e-07
1095.671875,2.0318139713063234e-07
1097.392578,1.8906463290951933e-07
1099.113281,1.8338936931741058e-07
1100.833984,1.852285766355986e-07
1102.554688,1.939816143816268e-07
1104.273438,2.0930756439902138e-07
1105.992188,2.3113960768437768e-07
1107.712891,2.5966243945167e-07
1109.429688,2.9512094632928e-07
1111.148438,3.381739056623658e-07
1112.867188,3.895285094822921e-07
1114.583984,4.5004993159423665e-07
1116.300781,5.209315319491223e-07
1118.017578,6.03528758348271e-07
1119.734375,6.994297744217935e-07
1121.449219,8.103411551037414e-07
1123.166016,9.386356181683192e-07
1124.880859,1.0864474878156026e-06
1126.595703,1.2566807621142686e-06
1128.310547,1.4524873005224969e-06
1130.025391,1.6774480125439645e-06
1131.738281,1.935308804923528e-06
1133.451172,2.2308901817582846e-06
1135.164062,2.569370429874822e-06
1136.876953,2.956596123007107e-06
1138.589844,3.39915871890654e-06
1140.302734,3.904481293606173e-06
1142.013672,4.480213763087926e-06
1143.724609,5.136244538620023e-06
1145.435547,5.883067484190498e-06
1147.146484,6.732444519504909e-06
1148.855469,7.696375302204863e-06
1150.566406,8.791780152915457e-06
1152.275391,1.0032578820905156e-05
1153.984375,1.1438250037949367e-05
1155.693359,1.3029202444056627e-05
1157.402344,1.4828162130935672e-05
1159.109375,1.6857938314899915e-05
1160.816406,1.914845183724611e-05
1162.525391,2.1733896933565817e-05
1164.230469,2.463929576713945e-05
1165.9375,2.7912173938828953e-05
1167.644531,3.159156048029854e-05
1169.349609,3.5719031371247717e-05
1171.054688,4.0349784693691734e-05
1172.759766,4.554027603192399e-05
1174.464844,5.135266802809702e-05
1176.169922,5.78553173020128e-05
1177.873047,6.511451560289041e-05
1179.576172,7.321939627358196e-05
1181.28125,8.227085764561707e-05
1182.982422,9.233453773337549e-05
1184.685547,0.00010355090084397867
1186.388672,0.00011602654779093709
1188.089844,0.00012987293565828637
1189.791016,0.0001452428002180937
1191.492188,0.00016228756224622503
1193.193359,0.0001811717578295296
1194.892578,0.00020204878063936646
1196.59375,0.0002251600280663766
1198.292969,0.0002506615277613316
1199.992188,0.00027880439530409047
1201.691406,0.00030983256858858345
1203.390625,0.0003440092255107596
1205.087891,0.0003815725169343791
1206.785156,0.0004228637754414507
1208.482422,0.00046820961714001073
1210.179688,0.0005179604513440277
1211.876953,0.0005724917978006327
1213.574219,0.0006322056680690181
1215.269531,0.0006974530514603419
1216.964844,0.0007687566775555995
1218.660156,0.0008466035831184658
1220.355469,0.0009315123795928721
1222.050781,0.001024034145424382
1223.744141,0.0011246330852127382
1225.4375,0.0012340291905382306
1227.130859,0.0013528766261412576
1228.824219,0.001481866773938564
1230.517578,0.001621729015816837
1232.210938,0.0017732322430003035
1233.902344,0.0019369884792887068
1235.59375,0.0021140123440741227
1237.285156,0.002305191785493413
1238.976562,0.002511456561644103
1240.667969,0.002733778751765035
1242.357422,0.002972885771531505
1244.046875,0.0032300781065152614
1245.736328,0.0035064509564569756
1247.425781,0.0038031412640232008
1249.115234,0.004121327140566171
1250.802734,0.004461819383187041
1252.492188,0.004826662872732774
1254.179688,0.0052163061091952435
1255.867188,0.005632484383927343
1257.554688,0.00607655939944312
1259.240234,0.006549359340108213
1260.927734,0.007053402375861199
1262.613281,0.00758896794538839
1264.298828,0.008158089793411098
1265.984375,0.008762256226771544
1267.667969,0.009402207434804312
1269.353516,0.010080942714094435
1271.037109,0.01079840813178419
