Raman Shift (cm-1),Fitted Intensity
99.845703,0.11284052077395422
101.785156,0.11601751274088691
103.724609,0.11930287665357339
105.662109,0.12269556548759401
107.599609,0.1262011319089329
109.537109,0.12982173193379298
111.474609,0.13355935673248198
113.410156,0.13741186239223438
115.345703,0.1413845454442647
117.28125,0.14547876003691662
119.216797,0.14969560142770344
121.152344,0.1540358806345893
123.085938,0.15849553165124844
125.019531,0.163079033846778
126.953125,0.1677861960083282
128.884766,0.17261149284144978
130.818359,0.17756368562193725
132.75,0.18263134771269462
134.681641,0.18781753066220383
136.613281,0.19311986267325773
138.542969,0.1985299441092444
140.474609,0.20405532494540088
142.404297,0.2096809051352117
144.333984,0.21540772277237447
146.261719,0.22122478380362745
148.191406,0.2271382300591916
150.119141,0.23312987549330044
152.046875,0.2391988402025668
153.974609,0.2453377144797068
155.900391,0.25153218009139305
157.828125,0.25778619759394256
159.753906,0.2640779290678723
161.679688,0.2704039559897515
163.603516,0.2767475368870127
165.529297,0.283110743781327
167.453125,0.28946936677475776
169.376953,0.29581808217499717
171.300781,0.30214467349045354
173.222656,0.3084301519472882
175.146484,0.3146743143010594
177.068359,0.32085120356938
178.990234,0.32695364733077786
180.910156,0.33296182891024756
182.832031,0.33887406824778105
184.751953,0.34466436320490246
186.671875,0.3503247616559058
188.591797,0.3558412730611371
190.511719,0.3611999962777453
192.429688,0.36638200186714664
194.347656,0.37137934191949623
196.265625,0.37617883479968417
198.183594,0.3807676514525122
200.099609,0.38512906369418315
202.015625,0.3892559913457908
203.933594,0.39314095079938294
205.847656,0.39676177267736124
207.763672,0.4001199371246064
209.677734,0.40319935036579996
211.59375,0.4059978356610366
213.507812,0.40850207427954555
215.419922,0.41070625252326126
217.333984,0.4126090846743672
219.246094,0.41420187179365026
221.158203,0.4154828855542245
223.070312,0.41644931696611054
224.982422,0.41709938923469814
226.892578,0.41743219198148307
228.802734,0.4174488707966699
230.712891,0.417150793759412
232.623047,0.4165403726750904
234.533203,0.41562105048634584
236.441406,0.4143986890128574
238.349609,0.41287793550699947
240.257812,0.4110651774678434
242.166016,0.4089677242734704
244.072266,0.4065963403498978
245.980469,0.4039551911764986
247.886719,0.4010594852012674
249.791016,0.3979205258909126
251.697266,0.39454307434892777
253.601562,0.3909458566646021
255.507812,0.3871338691362031
257.412109,0.38312778081269444
259.314453,0.3789414545114141
261.21875,0.3745799202693211
263.121094,0.3700660266487093
265.023438,0.3654095047455787
266.925781,0.3606246379280252
268.828125,0.3557257981479548
270.728516,0.35073257407044234
272.628906,0.3456543278904955
274.529297,0.34050529473316504
276.429688,0.3352995666737539
278.330078,0.33005102865091007
280.228516,0.32477873086622666
282.126953,0.31949057425046024
284.025391,0.31419946611553956
285.923828,0.308917924640871
287.822266,0.30365801656981006
289.71875,0.2984366989838999
291.615234,0.2932595970421479
293.511719,0.28813722392028374
295.40625,0.28308471122996176
297.302734,0.27810100287820855
299.197266,0.27320511201544373
301.091797,0.26840000242809137
302.986328,0.2636931780761092
304.878906,0.25909620126734323
306.773438,0.25460581599862203
308.666016,0.25023687429260516
310.558594,0.24598963692100756
312.449219,0.24187261117105766
314.341797,0.237880986004269
316.232422,0.23402607635211553
318.123047,0.23030616851848096
320.013672,0.2267231471200632
321.904297,0.2232783232218394
323.792969,0.21997579373211035
325.681641,0.21681214253662276
327.570312,0.2137870666812167
329.458984,0.2108997602069552
331.347656,0.20814894491713015
333.234375,0.2055355222325021
335.121094,0.20305441732582147
337.007812,0.20070306436794846
338.894531,0.1984785108644828
340.779297,0.19637956186859934
342.664062,0.1944002200787151
344.548828,0.19253654569531004
346.433594,0.1907843203575021
348.318359,0.1891390692860186
350.201172,0.1875976322225462
352.085938,0.18615190580280405
353.96875,0.18479980875389593
355.849609,0.18353583566933743
357.732422,0.18235201256816178
359.613281,0.1812453543966092
361.494141,0.1802090773577071
363.375,0.17923761833011248
365.255859,0.17832538634932324
367.134766,0.1774676543909341
369.015625,0.1766570749650562
370.894531,0.1758898188521863
372.773438,0.1751595810718361
374.650391,0.17446172555995032
376.529297,0.17378956807552745
378.40625,0.17313941444896078
380.283203,0.17250561889521662
382.160156,0.17188341904979798
384.035156,0.17126888074060476
385.912109,0.17065636278847623
387.787109,0.17004300806281247
389.662109,0.16942428836564943
391.537109,0.16879656524889183
393.410156,0.16815713897052306
395.283203,0.16750227234769544
397.15625,0.16682916149413735
399.029297,0.16613529600815344
400.902344,0.16541846636151303
402.773438,0.16467755682335378
404.646484,0.16390943132651417
406.517578,0.16311441736565088
408.388672,0.1622907718927875
410.257812,0.1614387609192167
412.128906,0.1605562791079956
413.998047,0.15964515924291148
415.867188,0.15870479654868258
417.736328,0.15773579950999175
419.603516,0.1567401333158247
421.470703,0.1557180058998183
423.339844,0.15466980402682148
425.207031,0.1535995017220124
427.072266,0.1525092274844309
428.939453,0.1513990307881229
430.804688,0.1502738281736922
432.669922,0.14913532400305768
434.535156,0.14798663053651753
436.400391,0.14683111522752773
438.263672,0.14567361522541944
440.126953,0.1445167884711394
441.990234,0.1433647587324809
443.853516,0.14222191464934375
445.716797,0.14109292343428964
447.578125,0.1399838953445615
449.439453,0.138898896157465
451.300781,0.1378435261123362
453.162109,0.13682376651255956
455.023438,0.1358460279813414
456.882812,0.13491816130890766
458.742188,0.1340465643706904
460.601562,0.13323935325971398
462.460938,0.13250542859569528
464.318359,0.13185527312640616
466.177734,0.13129849053939316
468.035156,0.13084858731408583
469.892578,0.13051894389034252
471.748047,0.1303257923705558
473.605469,0.13028742151404588
475.460938,0.13042585100961868
477.316406,0.13076702435153642
479.171875,0.13134233215949723
481.025391,0.13218901638414718
482.880859,0.13335616796166186
484.734375,0.13490057816170514
486.587891,0.1368986302111592
488.441406,0.13944759803487816
490.292969,0.14267104331962693
492.146484,0.14674433187259578
493.998047,0.15188348301543408
495.849609,0.15839161940801408
497.701172,0.16666328371902012
499.550781,0.17719174873244156
501.402344,0.19061544119469467
503.251953,0.20759637571455383
505.101562,0.22881779737567706
506.949219,0.2547318977393808
508.798828,0.2854475234081975
510.646484,0.3202637615236645
512.494141,0.3576908328520455
514.341797,0.3953161288503509
516.189453,0.4301029528272558
518.035156,0.4589136546332216
519.880859,0.47931596299123963
521.728516,0.4901126869377651
523.572266,0.49168277519176234
525.417969,0.4859371920806341
527.261719,0.4757505825860701
529.107422,0.4642047616223259
530.951172,0.4539513236809636
532.792969,0.4466631670385438
534.636719,0.4429048232777553
536.478516,0.44229822703626626
538.322266,0.4437959135767424
540.164062,0.4460518172164707
542.003906,0.4477477817062226
543.845703,0.44782831237764154
545.685547,0.4456250471278577
547.525391,0.4408999931969591
549.365234,0.4338073199659664
551.205078,0.4248069938953421
553.044922,0.41454791320020135
554.882812,0.4037552489150064
556.720703,0.3930828829470999
558.558594,0.38306253874127727
560.396484,0.37404193688793846
562.232422,0.3661758992583575
564.068359,0.35941444136251083
565.90625,0.35356077298169997
567.740234,0.3483377521961666
569.576172,0.34338027174902336
571.412109,0.33834065972182664
573.246094,0.33290436750087465
575.080078,0.3268073402813212
576.914062,0.3198686407210319
578.746094,0.31200101562161014
580.580078,0.3031746340592595
582.412109,0.29346979198824025
584.244141,0.28300052606638987
586.076172,0.27193551576016145
587.90625,0.260484759797411
589.738281,0.24883396828501153
591.568359,0.23721589575032334
593.398438,0.2258118664921113
595.228516,0.21479242058876633
597.056641,0.20430980782989192
598.886719,0.19445080610017965
600.714844,0.18531312202037453
602.542969,0.17693196362299463
604.371094,0.16932628871633992
606.197266,0.16249916124673497
608.025391,0.15641415915623572
609.851562,0.15104928748985733
611.677734,0.14635389828634426
613.503906,0.14227934858455563
615.328125,0.1387787762836114
617.152344,0.13579821208539403
618.978516,0.1332887130228291
620.800781,0.13121530237835147
622.625,0.12953348650267787
624.449219,0.12821442460337618
626.271484,0.127234146568534
628.09375,0.1265732998136934
629.916016,0.12622195931042443
631.738281,0.12617927800489318
633.558594,0.12645503631260155
635.380859,0.12707443201182317
637.201172,0.1280803237204955
639.021484,0.12954529576950252
640.839844,0.13157969688437351
642.660156,0.13435963734277168
644.478516,0.138131565362484
646.296875,0.14324839998967706
648.115234,0.15014980503097178
649.933594,0.15929298572802103
651.75,0.1709653128069727
653.566406,0.1850436146322774
655.382812,0.200666811959292
657.199219,0.21610850054915048
659.015625,0.22900287847764866
660.830078,0.2369806080713577
662.646484,0.23853395598336374
664.460938,0.23358194163124762
666.275391,0.223529649705637
668.087891,0.21070666126966495
669.902344,0.1974839311613833
671.714844,0.1856995784252135
673.527344,0.17629333099333336
675.339844,0.16947060959544874
677.150391,0.16497903506524492
678.962891,0.1623737654318417
680.773438,0.1612300030591773
682.583984,0.1611985438843561
684.394531,0.16203246004556518
686.205078,0.16356805680968614
688.013672,0.1657004822069995
689.822266,0.16837169926531068
691.630859,0.17155146108504224
693.439453,0.1752295558485076
695.248047,0.1794098009109701
697.054688,0.18410066436703718
698.861328,0.18932732635100288
700.667969,0.19511581370155917
702.474609,0.20149557113784086
704.28125,0.20849808199370332
706.085938,0.216146927182147
707.890625,0.22448099356372375
709.695312,0.23353030543248243
711.5,0.24332206238743964
713.304688,0.253879440404143
715.107422,0.26520771289430395
716.910156,0.2773294687032889
718.712891,0.2902488143561579
720.515625,0.3039612845510048
722.318359,0.3184528998294723
724.119141,0.3336823681954057
725.919922,0.34962957800883493
727.720703,0.36624758022816195
729.521484,0.3834775407958329
731.322266,0.40124871956924796
733.121094,0.4194586929218353
734.919922,0.4380332580518205
736.71875,0.4568690703218741
738.517578,0.4758539406805187
740.316406,0.4948685522057883
742.113281,0.5137682175339745
743.910156,0.5324476234226151
745.707031,0.5507822444456894
747.503906,0.5686537061056209
749.300781,0.5859563911908076
751.095703,0.6025897614898283
752.890625,0.6185299172660156
754.685547,0.6338047682977992
756.480469,0.6485790646672315
758.275391,0.6633090188314854
760.068359,0.6791279121512072
761.861328,0.6990151510730809
763.654297,0.7301116346635943
765.447266,0.773409609285695
767.240234,0.7708482465606117
769.03125,0.7405688990143411
770.822266,0.7264056446131787
772.613281,0.7222644483259617
774.404297,0.723001140517406
776.195312,0.7273704683212748
777.984375,0.7361398892281426
779.773438,0.751675682272225
781.5625,0.7781859186202594
783.351562,0.8216498031814311
785.140625,0.8857411221845068
786.927734,0.9545338067671679
788.714844,0.9747800445657843
790.501953,0.9147954565748907
792.289062,0.8216289962068568
794.076172,0.7409370339099242
795.861328,0.6816096962988142
797.646484,0.6386436762308237
799.433594,0.60650357376199
801.216797,0.5815604480713975
803.001953,0.5614662481839843
804.785156,0.5449323356140009
806.570312,0.5311326652303298
808.353516,0.5196305427721065
810.136719,0.5101359789525193
811.917969,0.5025004840360382
813.701172,0.49662384180316005
815.482422,0.49247938732005847
817.263672,0.4900451954220184
819.044922,0.4893182938899527
820.824219,0.49029493891696185
822.605469,0.492968228932492
824.384766,0.4973085661342391
826.164062,0.5032730437346754
827.943359,0.5107900348767739
829.722656,0.5197568445936821
831.5,0.5300250189624217
833.279297,0.5414461854753083
835.056641,0.5537916151448291
836.832031,0.5668262875471481
838.609375,0.5803246587346149
840.386719,0.5940051975214473
842.162109,0.6075835786610098
843.9375,0.6208164787958378
845.712891,0.6334685806947687
847.488281,0.6453396621562384
849.261719,0.6562635769974643
851.035156,0.6661528165187292
852.810547,0.6749730828899038
854.582031,0.6827118892167289
856.355469,0.6894664450850874
858.128906,0.695345604190512
859.900391,0.7005000604095988
861.671875,0.7051179490986423
863.443359,0.7093926950189445
865.214844,0.7135163220863463
866.984375,0.7176620594116564
868.755859,0.7219916990417651
870.525391,0.7266145333232085
872.294922,0.7316146759098513
874.064453,0.7370296111299266
875.832031,0.7428482931542207
877.601562,0.74904001483132
879.369141,0.7555132777281061
881.136719,0.7621690458926689
882.904297,0.7688812638770434
884.669922,0.7755044091393025
886.4375,0.7819111492777762
888.203125,0.7879501018623252
889.96875,0.7935040954150744
891.734375,0.7984692896454118
893.498047,0.802765620477704
895.263672,0.806362427004174
897.027344,0.8092541498083216
898.791016,0.8114968547817832
900.554688,0.8131977398255297
902.316406,0.8145231490685584
904.080078,0.8157065323442827
905.841797,0.8170367614292313
907.603516,0.8188596787995605
909.365234,0.8215560261391338
911.126953,0.8255144729222937
912.886719,0.8310836913867484
914.646484,0.838537706609824
916.408203,0.8480165754821929
918.166016,0.8594170066666014
919.925781,0.8724694931590542
921.685547,0.8866138639630864
923.443359,0.9010777051542387
925.201172,0.9150036036741559
926.958984,0.9275380648455147
928.716797,0.9380167251719648
930.472656,0.946125749511604
932.230469,0.9520572715841382
933.986328,0.9564752988899765
935.742188,0.9604505092657245
937.496094,0.965152018341401
939.251953,0.9714732247544959
941.005859,0.9795411787706687
942.761719,0.9884064506819966
944.515625,0.9958402749535925
946.267578,0.998609318941708
948.021484,0.9930049199984587
949.773438,0.9756634664280026
951.527344,0.9443357708779946
953.279297,0.8986625607463702
955.029297,0.8402245455705276
956.78125,0.7720998504037955
958.533203,0.6985748997023358
960.283203,0.6241609229827068
962.033203,0.552660540660576
963.783203,0.4869428924459126
965.53125,0.4287535082175615
967.28125,0.3785592841482297
969.029297,0.33624196706694215
970.777344,0.30099474861150827
972.525391,0.2718320605303979
974.273438,0.24773089171475263
976.019531,0.22777192375498317
977.767578,0.211109491470043
979.513672,0.1971293080025169
981.259766,0.18529526283865103
983.005859,0.17520433297295895
984.75,0.16655188038482835
986.496094,0.15907405539692768
988.240234,0.15259581165902697
989.984375,0.1469562930962885
991.728516,0.1420339761867104
993.470703,0.13773522893771092
995.214844,0.13397057384760638
996.957031,0.1306830767081894
998.699219,0.12781435520210113
1000.441406,0.12531974453964892
1002.181641,0.1231642974007221
1003.923828,0.12131213828832228
1005.664062,0.11974144301163242
1007.404297,0.11842815308824987
1009.144531,0.11735386809656198
1010.884766,0.11650300184670183
1012.623047,0.11586289312522496
1014.363281,0.11542073939418553
1016.101562,0.1151677166112321
1017.839844,0.11509463311659136
1019.576172,0.1151936530466067
1021.314453,0.11545810092095542
1023.050781,0.11588102006899645
1024.787109,0.11645661171339379
1026.523438,0.11717907384298233
1028.259766,0.11804267473594679
1029.996094,0.11904164293865402
1031.730469,0.12016872956072643
1033.464844,0.12141887590517043
1035.199219,0.12278568910808213
1036.933594,0.12426243621266407
1038.667969,0.12584200180111962
1040.400391,0.12751492070583498
1042.134766,0.12927701141774217
1043.867188,0.1311159243658641
1045.599609,0.1330247843717435
1047.330078,0.1349921068329063
1049.0625,0.13701270114025202
1050.792969,0.1390720242396927
1052.523438,0.14116201718310015
1054.253906,0.14327208450503034
1055.984375,0.14539140494581554
1057.712891,0.1475066010343029
1059.443359,0.14961137017030485
1061.171875,0.151689872091741
1062.900391,0.15373345832982183
1064.628906,0.1557312249685569
1066.355469,0.15767032525134672
1068.083984,0.15954475620322942
1069.810547,0.1613402886668114
1071.537109,0.1630495495715723
1073.263672,0.16466354915021342
1074.990234,0.16617390666236595
1076.714844,0.16757141265058098
1078.439453,0.16885091373327624
1080.164062,0.17000629773203965
1081.888672,0.17103231199594623
1083.613281,0.1719246066201077
1085.337891,0.17267977455298403
1087.060547,0.1732947569775661
1088.783203,0.17376903689816875
1090.505859,0.1741021521414784
1092.228516,0.1742946271392361
1093.951172,0.17434796069794353
1095.671875,0.1742647758428991
1097.392578,0.17404857386710593
1099.113281,0.17370359558092438
1100.833984,0.1732349121625804
1102.554688,0.17264836903945535
1104.273438,0.17195137708953304
1105.992188,0.1711505118718875
1107.712891,0.1702524450086411
1109.429688,0.16926862015076857
1111.148438,0.16820446344590667
1112.867188,0.1670700087296832
1114.583984,0.16587584922965246
1116.300781,0.16463005897661176
1118.017578,0.16334203643159353
1119.734375,0.16202116946839115
1121.449219,0.16067829669314584
1123.166016,0.15931948652782407
1124.880859,0.15795671098800593
1126.595703,0.1565970016018067
1128.310547,0.1552485729534692
1130.025391,0.15391922634570326
1131.738281,0.15261777004550453
1133.451172,0.15134949370835352
1135.164062,0.15012068383365626
1136.876953,0.14893706459390157
1138.589844,0.14780378271670339
1140.302734,0.14672539169935647
1142.013672,0.1457069706737496
1143.724609,0.14475059993750888
1145.435547,0.1438590259697055
1147.146484,0.14303441474837844
1148.855469,0.1422791865283281
1150.566406,0.1415926658611556
1152.275391,0.1409769456939727
1153.984375,0.14043123521663492
1155.693359,0.13995510240279124
1157.402344,0.13954768424270095
1159.109375,0.13920807212787856
1160.816406,0.13893414593388406
1162.525391,0.1387237619923805
1164.230469,0.13857530907209434
1165.9375,0.13848569621703816
1167.644531,0.13845243697782025
1169.349609,0.1384726078470251
1171.054688,0.1385431327831775
1172.759766,0.13866089241417684
1174.464844,0.13882268517490848
1176.169922,0.13902525593767093
1177.873047,0.13926502765521845
1179.576172,0.1395389369814392
1181.28125,0.13984409762865316
1182.982422,0.14017619989953745
1184.685547,0.14053318882168753
1186.388672,0.1409116199998048
1188.089844,0.14130803890480592
1189.791016,0.14171998792133783
1191.492188,0.14214469676192018
1193.193359,0.14257951246261982
1194.892578,0.14302139541848366
1196.59375,0.14346896315902355
1198.292969,0.1439189252510074
1199.992188,0.1443696657488629
1201.691406,0.14481919127492182
1203.390625,0.14526564317677731
1205.087891,0.14570679060944194
1206.785156,0.14614155860733521
1208.482422,0.14656848560882602
1210.179688,0.1469862341241944
1211.876953,0.14739358806746244
1213.574219,0.1477894496582702
1215.269531,0.1481724000849182
1216.964844,0.14854202970054947
1218.660156,0.1488975702222254
1220.355469,0.14923835447245765
1222.050781,0.14956381040922231
1223.744141,0.14987311104081677
1225.4375,0.1501662488350132
1227.130859,0.15044291618564778
1228.824219,0.15070288484622163
1230.517578,0.15094600186709345
1232.210938,0.15117218718645414
1233.902344,0.15138119763852131
1235.59375,0.15157335841421302
1237.285156,0.15174878675880976
1238.976562,0.15190766009258527
1240.667969,0.15205021363978286
1242.357422,0.1521766008631106
1244.046875,0.15228733858201135
1245.736328,0.15238282080286966
1247.425781,0.15246349103233056
1249.115234,0.15252984069096703
1250.802734,0.15258235463690353
1252.492188,0.1526217368933757
1254.179688,0.1526485217337444
1255.867188,0.15266342967220656
1257.554688,0.1526671698409143
1259.240234,0.15266050560176744
1260.927734,0.15264421057317656
1262.613281,0.15261914939866897
1264.298828,0.15258617309697298
1265.984375,0.15254618381306626
1267.667969,0.15250017728460932
1269.353516,0.1524490215524282
1271.037109,0.15239384434211914
1272.720703,0.1523356325777783
1274.404297,0.1522754646182875
1276.087891,0.15221445313576043
