Raman Shift (cm-1),Fitted Intensity
171.300781,0.03999981912372872
173.222656,0.042828266818900666
175.146484,0.046039586121170185
177.068359,0.0496839458210415
178.990234,0.053823053790549136
180.910156,0.05850856186143464
182.832031,0.06379909193087484
184.751953,0.06971800646257682
186.671875,0.07628086555109986
188.591797,0.08346529297025515
190.511719,0.09120734297969847
192.429688,0.09938645710958258
194.347656,0.10784794451614528
196.265625,0.1163817577080092
198.183594,0.12473932048991465
200.099609,0.13264163066162518
202.015625,0.13982556889104572
203.933594,0.1460483801483637
205.847656,0.15109225565118065
207.763672,0.15484347868487158
209.677734,0.1572477342310467
211.59375,0.15835313033905712
213.507812,0.15828615912177726
215.419922,0.15725073871013262
217.333984,0.155496533191965
219.246094,0.15330516026339952
221.158203,0.15095445747821198
223.070312,0.14870288051022504
224.982422,0.14677079920938346
226.892578,0.14533081181079505
228.802734,0.14449850718871768
230.712891,0.14433981669765142
232.623047,0.14487432257800462
234.533203,0.14608327890397374
236.441406,0.1479164404517515
238.349609,0.1503062651063254
240.257812,0.1531714227518007
242.166016,0.15642380984300172
244.072266,0.15996933161886887
245.980469,0.1637258838705265
247.886719,0.1675993929578754
249.791016,0.17150731210738684
251.697266,0.17538004018872494
253.601562,0.17913704183433993
255.507812,0.18271842178596312
257.412109,0.1860545561330897
259.314453,0.18908944090087382
261.21875,0.1917781352578074
263.121094,0.19406989008701275
265.023438,0.1959286065385634
266.925781,0.19732167562354222
268.828125,0.1982231816517444
270.728516,0.1986139624012369
272.628906,0.19848321704685976
274.529297,0.19782596823454637
276.429688,0.19664415875169358
278.330078,0.1949464525449298
280.228516,0.1927504247356477
282.126953,0.19007557194542377
284.025391,0.18694829228644727
285.923828,0.18339979759114297
287.822266,0.17946540971715297
289.71875,0.1751883986816169
291.615234,0.17060606554215155
293.511719,0.16576135364917016
295.40625,0.16070352605798896
297.302734,0.1554663000205048
299.197266,0.1501040667330772
301.091797,0.14465395156992483
302.986328,0.13915665412545367
304.878906,0.1336563056188327
306.773438,0.12817732146149285
308.666016,0.12276373368376917
310.558594,0.11743934026802846
312.449219,0.11223552901037744
314.341797,0.1071641474814519
316.232422,0.10225477701838592
318.123047,0.09751782747293404
320.013672,0.09296576572275878
321.904297,0.08860798444373286
323.792969,0.0844552066465326
325.681641,0.08050673830236872
327.570312,0.07676414998062885
329.458984,0.07322693934381075
331.347656,0.06989281940474246
333.234375,0.066761123297585
335.121094,0.06382325273033534
337.007812,0.06107316028167287
338.894531,0.05850402165016457
340.779297,0.056110847178211055
342.664062,0.05388315309633204
344.548828,0.0518129979380367
346.433594,0.04989238236195012
348.318359,0.048113368798245196
350.201172,0.046469820922393025
352.085938,0.044950815531460825
353.96875,0.04355231729468695
355.849609,0.04226716278399891
357.732422,0.04108630205353957
359.613281,0.04000626329685765
361.494141,0.03902032235063633
363.375,0.03812352800890841
365.255859,0.03731143530024569
367.134766,0.0365808402151918
369.015625,0.03592684223034975
370.894531,0.035347975205717724
372.773438,0.03484127610655287
374.650391,0.03440552814060078
376.529297,0.03403884459061958
378.40625,0.03374172305643973
380.283203,0.03351427780133566
382.160156,0.033357947503613976
384.035156,0.03327527464441252
385.912109,0.033269835850098385
387.787109,0.03334690335006513
389.662109,0.03351354904194449
391.537109,0.03377920158965137
393.410156,0.03415571512312034
395.283203,0.034659157387124474
397.15625,0.03530977139705399
399.029297,0.036133103357761764
400.902344,0.037160868341608935
402.773438,0.03843009119048148
404.646484,0.03998864159724121
406.517578,0.041884072804145356
408.388672,0.04417142644822814
410.257812,0.04689885856949953
412.128906,0.050113107885667266
413.998047,0.053827767121342546
415.867188,0.05803319216796559
417.736328,0.06267115822993555
419.603516,0.06762276881187898
421.470703,0.07272008073001779
423.339844,0.07774092889396193
425.207031,0.08240764423460026
427.072266,0.0864404433723584
428.939453,0.08958481520333078
430.804688,0.09162413751312268
432.669922,0.0924347152068631
434.535156,0.0919905273556297
436.400391,0.09037125234844419
438.263672,0.08775386194350511
440.126953,0.08437949949658916
441.990234,0.08052676048917046
443.853516,0.0764766226271492
445.716797,0.07248317884105804
447.578125,0.0687569234637976
449.439453,0.06544272926479983
451.300781,0.06263259352163472
453.162109,0.06036851801973774
455.023438,0.058653826445952045
456.882812,0.057466709844078714
458.742188,0.05676787619690615
460.601562,0.056514951892168534
462.460938,0.05666704247361076
464.318359,0.057188198466823006
466.177734,0.058052250710930176
468.035156,0.059238994096380934
469.892578,0.06073978473165978
471.748047,0.06255201680221883
473.605469,0.06468765501214095
475.460938,0.06715906938398476
477.316406,0.06999429141240686
479.171875,0.07322923050248419
481.025391,0.07690697797541318
482.880859,0.08109574241024838
484.734375,0.08586300827187168
486.587891,0.09130842747596336
488.441406,0.09755085805751869
490.292969,0.10472886164055839
492.146484,0.11303624395324471
493.998047,0.12266912044017843
495.849609,0.1338843902352603
497.701172,0.14696102043426798
499.550781,0.16217729324410407
501.402344,0.17985241475346533
503.251953,0.2001889721405062
505.101562,0.22334518470159534
506.949219,0.24927237759664034
508.798828,0.2777812704415345
510.646484,0.30829157065642887
512.494141,0.3400107200263905
514.341797,0.371832059823178
516.189453,0.40243190156974185
518.035156,0.4303615822026335
519.880859,0.4542987817795834
521.728516,0.4731373562050808
523.572266,0.48608924060956404
525.417969,0.49295698076717953
527.261719,0.49399747226478224
529.107422,0.4899560465103515
530.951172,0.4819373266060015
532.792969,0.47124050810528123
534.636719,0.4591525736163868
536.478516,0.4468780260533302
538.322266,0.4353332324104148
540.164062,0.4251893624979843
542.003906,0.4167874383007129
543.845703,0.41018847493765714
545.685547,0.40527567972533335
547.525391,0.4017665507352141
549.365234,0.39930501188634104
551.205078,0.39750526696796035
553.044922,0.39599021833194514
554.882812,0.3944185794727523
556.720703,0.39249483943791863
558.558594,0.3899796062729508
560.396484,0.3866887989178569
562.232422,0.382496274182468
564.068359,0.37731698827533977
565.90625,0.3711055937186743
567.740234,0.3638839531176592
569.576172,0.3556643629241851
571.412109,0.34651584539494196
573.246094,0.33653427707380223
575.080078,0.3258128965186097
576.914062,0.31446726544363146
578.746094,0.3026342966998872
580.580078,0.2904169966553014
582.412109,0.27796978664649
584.244141,0.26540505653020247
586.076172,0.25284206139811394
587.90625,0.24040482350096698
589.738281,0.22816733147243304
591.568359,0.21624456420033802
593.398438,0.20469988284465684
595.228516,0.19359729656067604
597.056641,0.18299943734622495
598.886719,0.17292334412221572
600.714844,0.16341912046996368
602.542969,0.15449433730323558
604.371094,0.146158890792999
606.197266,0.1384232690900673
608.025391,0.1312675189132051
609.851562,0.12469905052468572
611.677734,0.11869900074077899
613.503906,0.11325489865010736
615.328125,0.10835909052234827
617.152344,0.10399420772871712
618.978516,0.10014797444874594
620.800781,0.0968278539970822
622.625,0.09402440584779664
624.449219,0.09175154844751816
626.271484,0.09003099270235276
628.09375,0.0888923670835306
629.916016,0.08838238231983482
631.738281,0.08856378330493803
633.558594,0.0895144807308045
635.380859,0.09133102229219064
637.201172,0.09411452490477669
639.021484,0.09797311832795295
640.839844,0.10299513884412416
642.660156,0.1092542987867892
644.478516,0.11674622488624592
646.296875,0.12541033045679378
648.115234,0.13508946200694255
649.933594,0.14553660333390755
651.75,0.15642721069945967
653.566406,0.16744226588206684
655.382812,0.17828082660386205
657.199219,0.18865913293162148
659.015625,0.19817088880165593
660.830078,0.20603247001602182
662.646484,0.21097610572526113
664.460938,0.211484908326688
666.275391,0.20658804291277108
668.087891,0.19657711938639716
669.902344,0.1830287980704774
671.714844,0.16818497473387395
673.527344,0.1539580750394083
675.339844,0.1415024338677714
677.150391,0.13125910162096965
678.962891,0.12321225069456401
680.773438,0.11722288854332057
682.583984,0.11309536532684894
684.394531,0.11065578877607997
686.205078,0.10974800538363053
688.013672,0.11023167112267529
689.822266,0.11198368928215922
691.630859,0.11490102292229531
693.439453,0.11889908163586412
695.248047,0.12391060289762793
697.054688,0.12987654051291486
698.861328,0.13676219884564284
700.667969,0.14453744074904512
702.474609,0.15317872627100276
704.28125,0.16266661586799955
706.085938,0.1729719522659613
707.890625,0.18408707015637177
709.695312,0.19599302217479922
711.5,0.20866811466214252
713.304688,0.22208687416028686
715.107422,0.2362035845962319
716.910156,0.25099726397216593
718.712891,0.26642720309952417
720.515625,0.2824467983628993
722.318359,0.2990035100427483
724.119141,0.31602022871395685
725.919922,0.33345076252527
727.720703,0.351226163799787
729.521484,0.36927302123822925
731.322266,0.387514390833095
733.121094,0.4058509977791795
734.919922,0.4242226400776145
736.71875,0.44255045941367294
738.517578,0.4607590405674391
740.316406,0.4787794768071336
742.113281,0.49653420743262316
743.910156,0.5140004003209413
745.707031,0.5311583810858055
747.503906,0.5480211847869452
749.300781,0.5646484497242658
751.095703,0.5811480922687342
752.890625,0.5977568562290431
754.685547,0.6148212362336526
756.480469,0.6328509088835739
758.275391,0.652520389276563
760.068359,0.6745022775371329
761.861328,0.6989844859513272
763.654297,0.7242691438894767
765.447266,0.7451459650142503
767.240234,0.754214975278434
769.03125,0.7485978098272676
770.822266,0.7336254977970887
772.613281,0.7171669061977577
774.404297,0.7042296609150064
776.195312,0.6971045588885184
777.984375,0.6975064820538962
779.773438,0.70848135848873
781.5625,0.7363904625399268
783.351562,0.7930223672667334
785.140625,0.8905657451187956
786.927734,0.9942211859686046
788.714844,0.9823518656737269
790.501953,0.8713959741896813
792.289062,0.7819184066599681
794.076172,0.7365427008206756
795.861328,0.7094913519814273
797.646484,0.6717033522147989
799.433594,0.622075268645901
801.216797,0.5765450112831083
803.001953,0.5413424753728329
804.785156,0.515309559294289
806.570312,0.49588916761679364
808.353516,0.48124745489755755
810.136719,0.4701742738829183
811.917969,0.4619549871506915
813.701172,0.4561294088001998
815.482422,0.45243234934909154
817.263672,0.45067296472784174
819.044922,0.45072128133893774
820.824219,0.4524726436302952
822.605469,0.4558416375798801
824.384766,0.4607342987093547
826.164062,0.46706316857494273
827.943359,0.4747302210450666
829.722656,0.48362732813740905
831.5,0.49362359834718295
833.279297,0.5046103783474712
835.056641,0.5164223370120857
836.832031,0.5289063437237139
838.609375,0.5419316706619965
840.386719,0.5553210977345029
842.162109,0.568892978221106
843.9375,0.5824958684401758
845.712891,0.5959670056933376
847.488281,0.6091501148570134
849.261719,0.6218849379068038
851.035156,0.6340529128955434
852.810547,0.6455487835018513
854.582031,0.6562367028873205
856.355469,0.6660748395424645
858.128906,0.6749948198682607
859.900391,0.6829559830530156
861.671875,0.6899607386246259
863.443359,0.6960258144112673
865.214844,0.7011923283171096
866.984375,0.7055207171589807
868.755859,0.709107775902095
870.525391,0.7120536855205706
872.294922,0.7144899321648851
874.064453,0.7165607025069503
875.832031,0.7184228043560611
877.601562,0.7202507987229358
879.369141,0.7222191560275032
881.136719,0.7245120753255495
882.904297,0.727309609688445
884.669922,0.7307770774434356
886.4375,0.7350695362826404
888.203125,0.740286836770534
889.96875,0.746483970557049
891.734375,0.7536279852128833
893.498047,0.7615659513079825
895.263672,0.7700381365771053
897.027344,0.7786071476607971
898.791016,0.7867429259892277
900.554688,0.7938486749175415
902.316406,0.799375214480587
904.080078,0.8029862494554149
905.841797,0.80465739483835
907.603516,0.8047903059274346
909.365234,0.8041809658638641
911.126953,0.8039091453625079
912.886719,0.8051462117177426
914.646484,0.8089413717626671
916.408203,0.8160413224689796
918.166016,0.8266996372311626
919.925781,0.840703234832369
921.685547,0.8572782586223426
923.443359,0.8752035342217857
925.201172,0.8930263904595682
926.958984,0.9092345062535958
928.716797,0.922546140517944
930.472656,0.9321752946417143
932.230469,0.9380865454809951
933.986328,0.9410204550884383
935.742188,0.94245229291592
937.496094,0.9442364058282263
939.251953,0.9480860374579233
941.005859,0.9548928555725855
942.761719,0.9641516985734112
944.515625,0.9735628249761309
946.267578,0.9792354493873545
948.021484,0.9763637882325827
949.773438,0.9603441649828831
951.527344,0.9279652555032227
953.279297,0.8785069738219964
955.029297,0.813916682962358
956.78125,0.7382041968937472
958.533203,0.6568767134908915
960.283203,0.5755720244787603
962.033203,0.4988361238897566
963.783203,0.42982651820744344
965.53125,0.3701727870422456
967.28125,0.31996819035473956
969.029297,0.27863538284946826
970.777344,0.2449421104682095
972.525391,0.21757576066189585
974.273438,0.19529703227064987
976.019531,0.177062310025528
977.767578,0.16197368447251534
979.513672,0.14939770186789586
981.259766,0.1388057754792366
983.005859,0.12980990197667255
984.75,0.12212223582641153
986.496094,0.11549851571785544
988.240234,0.10977755948637072
989.984375,0.10481330066571438
991.728516,0.10049602406953936
993.470703,0.09674151146734053
995.214844,0.09346985365695738
996.957031,0.0906298773259147
998.699219,0.08816931790787635
1000.441406,0.08604785720359112
1002.181641,0.08423345684809841
1003.923828,0.08269331580537806
1005.664062,0.08140635864716143
1007.404297,0.08034958084558877
1009.144531,0.07950460570335091
1010.884766,0.07885529875675704
1012.623047,0.0783877885452253
1014.363281,0.078088230393729
1016.101562,0.07794573648152152
1017.839844,0.0779493135667571
1019.576172,0.07808896081099306
1021.314453,0.07835586649390577
1023.050781,0.07874082276356224
1024.787109,0.07923585488932686
1026.523438,0.07983306351368974
1028.259766,0.08052477953678908
1029.996094,0.08130350594881568
1031.730469,0.08216086058193674
1033.464844,0.08309040617393708
1035.199219,0.08408493217858753
1036.933594,0.08513726216931705
1038.667969,0.08624023989524454
1040.400391,0.08738540885336105
1042.134766,0.08856822452039838
1043.867188,0.08977892085398105
1045.599609,0.09101173546757454
1047.330078,0.0922582152770938
1049.0625,0.09351418540956749
1050.792969,0.0947699024107514
1052.523438,0.09601995985566637
1054.253906,0.09725764691377065
1055.984375,0.09847638850371788
1057.712891,0.09966843687494828
1059.443359,0.10083026072850254
1061.171875,0.10195323771433314
1062.900391,0.1030329430972516
1064.628906,0.10406389089104387
1066.355469,0.10503982124341234
1068.083984,0.10595807798115461
1069.810547,0.10681207773132766
1071.537109,0.10759875517384156
1073.263672,0.10831436593358353
1074.990234,0.10895557402768528
1076.714844,0.10951887913109148
1078.439453,0.11000259066328917
1080.164062,0.11040470282628549
1081.888672,0.1107236702359824
1083.613281,0.11095841345843924
1085.337891,0.11110832294533245
1087.060547,0.11117323198048523
1088.783203,0.11115368135645828
1090.505859,0.1110504502929262
1092.228516,0.1108647643429418
1093.951172,0.11059828294119928
1095.671875,0.11025351792335442
1097.392578,0.1098326798436883
1099.113281,0.10933861202577123
1100.833984,0.10877451027691136
1102.554688,0.10814389674747898
1104.273438,0.1074514146444206
1105.992188,0.10670046201065775
1107.712891,0.10589440978834413
1109.429688,0.10504061066644418
1111.148438,0.10414092702713981
1112.867188,0.10320113719526336
1114.583984,0.1022273087553472
1116.300781,0.10122339185367185
1118.017578,0.100194424426965
1119.734375,0.09914545156107371
1121.449219,0.09808271149977868
1123.166016,0.09700874594452528
1124.880859,0.0959308707128591
1126.595703,0.09485262417037177
1128.310547,0.09377862727462787
1130.025391,0.0927133401522745
1131.738281,0.09166223086609557
1133.451172,0.09062814132401645
1135.164062,0.08961491620066073
1136.876953,0.08862616376055277
1138.589844,0.08766524696381073
1140.302734,0.08673527084596114
1142.013672,0.08584007406545553
1143.724609,0.08498113611054878
1145.435547,0.08416073760076419
1147.146484,0.0833808838951798
1148.855469,0.08264411867918905
1150.566406,0.08195021003238978
1152.275391,0.08130192001651163
1153.984375,0.08069934533203114
1155.693359,0.08014314168888466
1157.402344,0.07963371634899681
1159.109375,0.07917174041925852
1160.816406,0.07875654594529911
1162.525391,0.07838746365208259
1164.230469,0.07806520384758486
1165.9375,0.0777879149727797
1167.644531,0.07755515163380303
1169.349609,0.07736610383849796
1171.054688,0.07721933490712292
1172.759766,0.07711356798172997
1174.464844,0.07704740824967546
1176.169922,0.07701935747916402
1177.873047,0.07702779788042974
1179.576172,0.0770710177413924
1181.28125,0.07714740220378034
1182.982422,0.07725486338135173
1184.685547,0.07739191015095245
1186.388672,0.07755660189779082
1188.089844,0.07774685570790942
1189.791016,0.07796099549738608
1191.492188,0.07819717582159211
1193.193359,0.07845356379470216
1194.892578,0.07872802236976784
1196.59375,0.07901939994323003
1198.292969,0.07932528230612862
1199.992188,0.0796442915295936
1201.691406,0.07997476958847996
1203.390625,0.08031510900606284
1205.087891,0.08066335069682075
1206.785156,0.08101838860835006
1208.482422,0.08137879121815352
1210.179688,0.08174318833641421
1211.876953,0.08211027349074071
1213.574219,0.08247880591150475
1215.269531,0.08284718583861483
1216.964844,0.08321473225303731
1218.660156,0.08358040625489613
1220.355469,0.08394323618872729
1222.050781,0.08430231559735266
1223.744141,0.08465639895987856
1225.4375,0.08500512874245199
1227.130859,0.08534779564360315
1228.824219,0.08568375291619285
1230.517578,0.08601241466544292
1232.210938,0.08633325602548374
1233.902344,0.08664545480829199
1235.59375,0.08694897864869701
1237.285156,0.08724347648162614
1238.976562,0.0875286520680426
1240.667969,0.08780426286900236
1242.357422,0.08806981685310993
1244.046875,0.08832549908137906
1245.736328,0.08857122032219361
1247.425781,0.08880693990749691
1249.115234,0.08903266469398856
1250.802734,0.08924820435629492
1252.492188,0.0894541568728211
1254.179688,0.08965018935932045
1255.867188,0.08983673300681311
1257.554688,0.09001401842257833
1259.240234,0.0901821291390664
1260.927734,0.09034177019276375
1262.613281,0.09049292850024665
1264.298828,0.09063619138583559
1265.984375,0.09077199767963876
1267.667969,0.09090068188467633
1269.353516,0.0910230630496512
1271.037109,0.09113941823715137
1272.720703,0.09125049436783603
1274.404297,0.09135693411801826
1276.087891,0.09145942197851975
1277.771484,0.09155868456612584
1279.453125,0.09165538020687373
1281.134766,0.09175043560036208
1282.816406,0.09184470444625607
1284.498047,0.09193908529657205
1286.179688,0.09203452213755588
1287.859375,0.09213189077626588
1289.541016,0.09223245512676859
1291.220703,0.09233706607265342
1292.900391,0.09244697217855986
1294.580078,0.09256335847203996
1296.257812,0.09268731397022775
1297.9375,0.09282041902586016
1299.615234,0.092963709988625
1301.292969,0.09311873923077704
1302.970703,0.0932869696691209
1304.646484,0.0934697046591199
1306.324219,0.09366895865080448
1308.0,0.09388592017549467
1309.675781,0.09412253168101022
1311.351562,0.0943805850243776
1313.027344,0.09466194657940893
1314.703125,0.09496855931019195
1316.376953,0.09530204080178513
1318.050781,0.09566483194088263
1319.724609,0.09605911667525492
1321.398438,0.09648716741497235
1323.072266,0.09695134682660012
1324.744141,0.09745350202268917
1326.417969,0.09799735696886225
1328.089844,0.09858428777784625
1329.761719,0.09921764757657342
