Raman Shift (cm-1),Fitted Intensity
171.300781,0.10202390965235365
173.222656,0.10863934117952377
175.146484,0.11576415480088918
177.068359,0.12337518998884094
178.990234,0.13145714570746697
180.910156,0.1399634876944658
182.832031,0.14885710443452993
184.751953,0.15804803038548154
186.671875,0.1674557209955457
188.591797,0.17697407084905767
190.511719,0.1864821185382207
192.429688,0.1958375150798976
194.347656,0.20490932299188083
196.265625,0.21355353568546948
198.183594,0.22162811283614625
200.099609,0.2289916462040844
202.015625,0.2355322909728544
203.933594,0.24115386849839035
205.847656,0.24576312405033293
207.763672,0.2493258142360237
209.677734,0.2518150135086625
211.59375,0.25324738874698804
213.507812,0.253662345669994
215.419922,0.25313388393196107
217.333984,0.2517571278298085
219.246094,0.24965157385699271
221.158203,0.24694793699699466
223.070312,0.2437870067196456
224.982422,0.24031247009954398
226.892578,0.23666868604094823
228.802734,0.23298383752814247
230.712891,0.22937626989142304
232.623047,0.22594734790971496
234.533203,0.2227787777589467
236.441406,0.21993378261796823
238.349609,0.21744764272871478
240.257812,0.21533786116147616
242.166016,0.21360207334774386
244.072266,0.2122212556306843
245.980469,0.2111568910165942
247.886719,0.2103628722045865
249.791016,0.20978050738194307
251.697266,0.20934394027424336
253.601562,0.20898559444492848
255.507812,0.20863493752994083
257.412109,0.20822417741904511
259.314453,0.20768846477373668
261.21875,0.2069667424822446
263.121094,0.2060072046424615
265.023438,0.20476370248660294
266.925781,0.20319926739271016
268.828125,0.2012859827891398
270.728516,0.1990077427446494
272.628906,0.19635337642689324
274.529297,0.19332238688055142
276.429688,0.18992267374770413
278.330078,0.18616984268493617
280.228516,0.18209071796566306
282.126953,0.1777099201804808
284.025391,0.1730605993344414
285.923828,0.1681796981135028
287.822266,0.163106843217259
289.71875,0.157888732321621
291.615234,0.15256196367784464
293.511719,0.14716791626406597
295.40625,0.14175236350693082
297.302734,0.13634235060472322
299.197266,0.13098462468890673
301.091797,0.12570614070020986
302.986328,0.1205360200294458
304.878906,0.11550485208574043
306.773438,0.11062393409035236
308.666016,0.10592120623262254
310.558594,0.10140570543313394
312.449219,0.09709239307594811
314.341797,0.09297964091780735
316.232422,0.08908016588847416
318.123047,0.08539110531656934
320.013672,0.08191153707361827
321.904297,0.07863846302436546
323.792969,0.07557021193986868
325.681641,0.0726971526151538
327.570312,0.07001202786615386
329.458984,0.06750674083318992
331.347656,0.0651726154989363
333.234375,0.06300277936404243
335.121094,0.0609855554429323
337.007812,0.05911176483430621
338.894531,0.0573723573028466
340.779297,0.05576013454240008
342.664062,0.05426477231640007
344.548828,0.05287819964168602
346.433594,0.051592779930182714
348.318359,0.05040133752785914
350.201172,0.0492982733612311
352.085938,0.04827508881840818
353.96875,0.04732818161394356
355.849609,0.04645207701067551
357.732422,0.04564016804727671
359.613281,0.04488980003486368
361.494141,0.044196184788598575
363.375,0.0435558183278509
365.255859,0.042965588256447716
367.134766,0.04242330245532643
369.015625,0.04192547552219659
370.894531,0.04147115142069135
372.773438,0.041058169006019836
374.650391,0.04068565008698545
376.529297,0.040351967220554744
378.40625,0.04005738513835418
380.283203,0.03980157485568997
382.160156,0.039585106809660875
384.035156,0.03940933919808355
385.912109,0.03927586037764345
387.787109,0.03918784686561159
389.662109,0.039149251090981156
391.537109,0.039165799108728624
393.410156,0.03924529681421809
395.283203,0.03939871043029414
397.15625,0.03964147536752387
399.029297,0.03999567690125723
400.902344,0.04049358180281971
402.773438,0.04118241970142719
404.646484,0.042135860493399215
406.517578,0.0434589979185945
408.388672,0.045303363228438705
410.257812,0.04785465470394548
412.128906,0.05130371155840646
413.998047,0.05573001383398782
415.867188,0.06098884330978787
417.736328,0.06659660766636126
419.603516,0.07177868392383017
421.470703,0.07575077510573935
423.339844,0.07808108734361376
425.207031,0.07894919645684008
427.072266,0.0791016360164524
428.939453,0.07947603065716266
430.804688,0.08075480545564523
432.669922,0.08308198652984367
434.535156,0.08604463355985577
436.400391,0.08887497570652574
438.263672,0.09075233905192955
440.126953,0.09109555570801481
441.990234,0.08972914335133361
443.853516,0.08690935427444128
445.716797,0.08320444965479563
447.578125,0.07930097602514713
449.439453,0.07580133658912874
451.300781,0.0731217616886376
453.162109,0.07146423141619616
455.023438,0.07085884243067186
456.882812,0.07123209708895516
458.742188,0.07247098912493395
460.601562,0.07446605549437235
462.460938,0.07713046415771574
464.318359,0.08040173987399432
466.177734,0.08425431576389789
468.035156,0.08866992594237837
469.892578,0.09366115542418312
471.748047,0.09924846387445208
473.605469,0.10548977082158108
475.460938,0.11244304479146029
477.316406,0.12022108135076091
479.171875,0.12898186809619136
481.025391,0.13893932133053033
482.880859,0.15040260632865304
484.734375,0.16363587364454263
486.587891,0.17877709765638986
488.441406,0.1955515178435719
490.292969,0.21309303075818933
492.146484,0.23014486771771403
493.998047,0.24544174207934416
495.849609,0.258473569523203
497.701172,0.2697093014845775
499.550781,0.28031579345159313
501.402344,0.2915576497640841
503.251953,0.3041860602312714
505.101562,0.31837281188443745
506.949219,0.3338070974022632
508.798828,0.3500160237934142
510.646484,0.36642271604377546
512.494141,0.3825436492921704
514.341797,0.3979432118426272
516.189453,0.41225441615203595
518.035156,0.4251687037684317
519.880859,0.43648299225662746
521.728516,0.446068355619735
523.572266,0.4538416190460925
525.417969,0.45985403408305675
527.261719,0.4641868577610935
529.107422,0.46700003715745136
530.951172,0.4684775277726709
532.792969,0.4688335491125941
534.636719,0.46828139374474037
536.478516,0.46702110288395393
538.322266,0.4652236711594264
540.164062,0.46303316609806755
542.003906,0.460554404630667
543.845703,0.4578500306954373
545.685547,0.4549616392967462
547.525391,0.4518961324616607
549.365234,0.44864379268861343
551.205078,0.44518242552575527
553.044922,0.4414837430771192
554.882812,0.4375231241465861
556.720703,0.43327139992084146
558.558594,0.4287097352750998
560.396484,0.42382774044517924
562.232422,0.4186301432274124
564.068359,0.413120613811473
565.90625,0.4073108530139416
567.740234,0.4012465401784777
569.576172,0.39494318745149687
571.412109,0.38844832420219205
573.246094,0.3818158536312335
575.080078,0.375090011302589
576.914062,0.3683250690377869
578.746094,0.361584522675264
580.580078,0.35491121751372956
582.412109,0.3483762747704366
584.244141,0.34202807319504913
586.076172,0.33591975527468826
587.90625,0.330107037818405
589.738281,0.3246227190429416
591.568359,0.3195182639737099
593.398438,0.3148211547637699
595.228516,0.31055793846222557
597.056641,0.30675136123572105
598.886719,0.30340410430533366
600.714844,0.30052569738466545
602.542969,0.29810615863967604
604.371094,0.2961308566870729
606.197266,0.2945784324228173
608.025391,0.2934151554503341
609.851562,0.2926063118582274
611.677734,0.2921074920642728
613.503906,0.29187121507840685
615.328125,0.2918469249633441
617.152344,0.2919826487169378
618.978516,0.29222777689708773
620.800781,0.2925332978392042
622.625,0.2928571437664326
624.449219,0.29316364399751166
626.271484,0.29342742168984587
628.09375,0.29363672239601435
629.916016,0.29379514857423644
631.738281,0.29392461018789484
633.558594,0.2940672535888379
635.380859,0.2942870970975123
637.201172,0.2946677926458151
639.021484,0.2953101318991087
640.839844,0.29632181762927123
642.660156,0.2978091006527889
644.478516,0.299849424094837
646.296875,0.3024790821408184
648.115234,0.305664554832845
649.933594,0.3092854001357166
651.75,0.31312238125782976
653.566406,0.3168791394487623
655.382812,0.3201980535075507
657.199219,0.3227098933122949
659.015625,0.3240910073112938
660.830078,0.32412139914894433
662.646484,0.3227279867290454
664.460938,0.32000911420859174
666.275391,0.31622005317597873
668.087891,0.31174802679527436
669.902344,0.30703820039979796
671.714844,0.30256815622807404
673.527344,0.2987593693082046
675.339844,0.2959589273138333
677.150391,0.29441556935227536
678.962891,0.29427279134813744
680.773438,0.29558900873924254
682.583984,0.2983527612769753
684.394531,0.30250685464167154
686.205078,0.30796719156217417
688.013672,0.314630363347778
689.822266,0.3224052329467263
691.630859,0.33120040435318837
693.439453,0.3409321118540789
695.248047,0.3515246665583226
697.054688,0.3628970224375767
698.861328,0.37499805153389987
700.667969,0.3877702680435576
702.474609,0.40115947014858977
704.28125,0.41511369940170095
706.085938,0.4295664098460738
707.890625,0.444482560319766
709.695312,0.45981247969674205
711.5,0.47550626665793605
713.304688,0.4915135065572306
715.107422,0.507765380332625
716.910156,0.5242273671091274
718.712891,0.5408469585896741
720.515625,0.5575707945538917
722.318359,0.5743447618518858
724.119141,0.5910959030184488
725.919922,0.6077871260230329
727.720703,0.624362770212518
729.521484,0.6407668918292494
731.322266,0.6569434731131459
733.121094,0.6728195346965613
734.919922,0.6883574017160831
736.71875,0.7035023108294379
738.517578,0.7182003515563677
740.316406,0.7323987312192605
742.113281,0.7460315474704315
743.910156,0.759064922642263
745.707031,0.7714512238749938
747.503906,0.7831450393532441
749.300781,0.7941034581487536
751.095703,0.8042757148000437
752.890625,0.8136371654082901
754.685547,0.8221541557521295
756.480469,0.8297966014095646
758.275391,0.8365382454014332
760.068359,0.8423510854490676
761.861328,0.8472251659315299
763.654297,0.8511472483452336
765.447266,0.8541089001125095
767.240234,0.8561067396040842
769.03125,0.8571420893861234
770.822266,0.8572251258664959
772.613281,0.8563691647174677
774.404297,0.8545936667536911
776.195312,0.8519245831577155
777.984375,0.8483990319147757
779.773438,0.844054562936544
781.5625,0.8389389038148679
783.351562,0.833108069298532
785.140625,0.8266269788886945
786.927734,0.8195781384109991
788.714844,0.8120393618947261
790.501953,0.8041062663676708
792.289062,0.795886274111913
794.076172,0.7874993119560632
795.861328,0.7790875004549976
797.646484,0.7707873787064025
799.433594,0.7627487866554691
801.216797,0.7551675526874427
803.001953,0.748197570662348
804.785156,0.7420393734323717
806.570312,0.7368661386276731
808.353516,0.7328700485502476
810.136719,0.730211751976145
811.917969,0.7290350483577313
813.701172,0.7294465588912769
815.482422,0.7315098618095844
817.263672,0.7352349252509468
819.044922,0.7405710427449709
820.824219,0.747394716660764
822.605469,0.7555427334616766
824.384766,0.7647632672688192
826.164062,0.7747874094670195
827.943359,0.7853121763310262
829.722656,0.7960298075242946
831.5,0.8066388059746006
833.279297,0.8169119156210926
835.056641,0.8266332260880521
836.832031,0.8356801874813642
838.609375,0.844021442643163
840.386719,0.8516652272500754
842.162109,0.858682046753375
843.9375,0.8652012011063452
845.712891,0.8713662518531325
847.488281,0.8773231305058846
849.261719,0.8831946454774077
851.035156,0.8890844583510905
852.810547,0.8950544332229984
854.582031,0.9010940402806594
856.355469,0.9071881159982716
858.128906,0.9132571808392234
859.900391,0.9191942723279423
861.671875,0.9248906149603583
863.443359,0.9302284257904782
865.214844,0.9350999235803098
866.984375,0.9394134688082026
868.755859,0.9431200857395954
870.525391,0.946186893350511
872.294922,0.9486293215738347
874.064453,0.9504930215910659
875.832031,0.9518532237558756
877.601562,0.9528139785490279
879.369141,0.953490632804964
881.136719,0.9540091184920084
882.904297,0.9544916384550791
884.669922,0.9550476767800196
886.4375,0.9557679953958753
888.203125,0.9567131690485222
889.96875,0.9579146154340608
891.734375,0.9593706912244189
893.498047,0.961048012493854
895.263672,0.9628954644933024
897.027344,0.9648405060676176
898.791016,0.9668152742941131
900.554688,0.9687618640421947
902.316406,0.9706445564683435
904.080078,0.9724666444241321
905.841797,0.9742576974004942
907.603516,0.9760799883731731
909.365234,0.9780010730627043
911.126953,0.9800649681793508
912.886719,0.9822498699459145
914.646484,0.9844329915163864
916.408203,0.9863491985209637
918.166016,0.9875654350612535
919.925781,0.9875095519234824
921.685547,0.9854994291364874
923.443359,0.9808428256193524
925.201172,0.9729286867126667
926.958984,0.9613305771778438
928.716797,0.9458499616514363
930.472656,0.9264906654885499
932.230469,0.9032162390520432
933.986328,0.8759097123024153
935.742188,0.8440686405520099
937.496094,0.8070119979477126
939.251953,0.764000530467433
941.005859,0.7150102034898212
942.761719,0.660742195585974
944.515625,0.6031393487745365
946.267578,0.5447336247006606
948.021484,0.4880520090262762
949.773438,0.43543367464218674
951.527344,0.38817904398747693
953.279297,0.34695154738603884
955.029297,0.311602681146445
956.78125,0.28150356842568686
958.533203,0.25596879632796365
960.283203,0.23428198357699523
962.033203,0.21575172818016228
963.783203,0.19982229339173652
965.53125,0.18605516262204033
967.28125,0.17405563765994075
969.029297,0.16355887103037314
970.777344,0.15431602396754227
972.525391,0.14613732188140485
974.273438,0.13886827027351753
976.019531,0.1323891838623222
977.767578,0.12658139891832393
979.513672,0.12137173116691746
981.259766,0.11668165429896697
983.005859,0.11245121621290229
984.75,0.10863412620302156
986.496094,0.10517945109857432
988.240234,0.10205915511871921
989.984375,0.09923891024003446
991.728516,0.09669304149083724
993.470703,0.0944021707142897
995.214844,0.09234262716645857
996.957031,0.09050327928700601
998.699219,0.088868294866073
1000.441406,0.08742625526983913
1002.181641,0.0861687166384959
1003.923828,0.08508450721462192
1005.664062,0.08416887307550605
1007.404297,0.08341426517702631
1009.144531,0.08281519535293454
1010.884766,0.08236674640026265
1012.623047,0.08206467270592709
1014.363281,0.08190405637549068
1016.101562,0.08188114955403618
1017.839844,0.08199158545092745
1019.576172,0.08223079516108724
1021.314453,0.08259486363662416
1023.050781,0.08307820089761214
1024.787109,0.08367596762104834
1026.523438,0.0843824978462895
1028.259766,0.08519157372466263
1029.996094,0.08609637725783703
1031.730469,0.08708828803172722
1033.464844,0.08816018111163607
1035.199219,0.08930330046476437
1036.933594,0.09050823199775222
1038.667969,0.09176492702905471
1040.400391,0.09306126114091434
1042.134766,0.09438898332270673
1043.867188,0.09573347710610774
1045.599609,0.09708422170794202
1047.330078,0.09842742257852935
1049.0625,0.0997536551281671
1050.792969,0.10104743193118668
1052.523438,0.10229784158244716
1054.253906,0.10349266277081609
1055.984375,0.10462001096743698
1057.712891,0.1056673369340427
1059.443359,0.10662621090857095
1061.171875,0.10748442792081368
1062.900391,0.10823395219322107
1064.628906,0.10886659148485504
1066.355469,0.1093747350005871
1068.083984,0.10975360161828503
1069.810547,0.10999766082905842
1071.537109,0.1101040484333251
1073.263672,0.11007074239410428
1074.990234,0.10989708656667295
1076.714844,0.10958422555117048
1078.439453,0.10913409823550894
1080.164062,0.10855006912970758
1081.888672,0.10783675686648356
1083.613281,0.106999963916837
1085.337891,0.10604658573375451
1087.060547,0.10498577361477966
1088.783203,0.10382524961099145
1090.505859,0.10257450258272724
1092.228516,0.10124364072875497
1093.951172,0.09984325850644904
1095.671875,0.09838597611832155
1097.392578,0.0968813491823012
1099.113281,0.09534055241157023
1100.833984,0.09377469751573832
1102.554688,0.09219470695123691
1104.273438,0.09061299596715779
1105.992188,0.08903794750972735
1107.712891,0.0874774685478997
1109.429688,0.08594591064107855
1111.148438,0.0844464161877205
1112.867188,0.0829884454928452
1114.583984,0.08158051439750696
1116.300781,0.0802270743206229
1118.017578,0.07893345986872402
1119.734375,0.07770419996124878
1121.449219,0.076544307413113
1123.166016,0.07545409083240803
1124.880859,0.07443822859869838
1126.595703,0.07349692180790883
1128.310547,0.07263098588868833
1130.025391,0.07184061585956195
1131.738281,0.07112621250362376
1133.451172,0.07048595317176241
1135.164062,0.06991850975733994
1136.876953,0.06942216128289236
1138.589844,0.06899485474765912
1140.302734,0.06863426118404727
1142.013672,0.06833813289435424
1143.724609,0.06810331310755643
1145.435547,0.06792697475663705
1147.146484,0.0678062181850236
1148.855469,0.06773816039795486
1150.566406,0.06771972217747169
1152.275391,0.06774806399993377
1153.984375,0.0678203239975135
1155.693359,0.06793377891529824
1157.402344,0.06808581512148894
1159.109375,0.06827370943313466
1160.816406,0.06849527142003717
1162.525391,0.06874861105156835
1164.230469,0.06903076253518092
1165.9375,0.06934075544985982
1167.644531,0.06967654762442303
1169.349609,0.07003613230702269
1171.054688,0.07041845342886863
1172.759766,0.07082222996188545
1174.464844,0.0712463213215087
1176.169922,0.07168971991021013
1177.873047,0.07215100491326824
1179.576172,0.07262991265492516
1181.28125,0.07312637061269336
1182.982422,0.0736380957511733
1184.685547,0.07416636825615516
1186.388672,0.07471024232836831
1188.089844,0.07526877967718751
1189.791016,0.07584237964978963
1191.492188,0.07643089208803039
1193.193359,0.07703422558726539
1194.892578,0.0776516250984294
1196.59375,0.07828451989975108
1198.292969,0.07893151038448187
1199.992188,0.07959340693394634
1201.691406,0.0802703362732895
1203.390625,0.08096245766660837
1205.087891,0.08166913533834683
1206.785156,0.08239136700847025
1208.482422,0.08312938787725067
1210.179688,0.08388345269731987
1211.876953,0.08465383516665889
1213.574219,0.08544082773493936
1215.269531,0.08624380213759567
1216.964844,0.0870639765279958
1218.660156,0.08790168489685218
1220.355469,0.08875727603287964
1222.050781,0.0896311088089365
1223.744141,0.0905225166082291
1225.4375,0.0914328752934632
1227.130859,0.09236257649853635
1228.824219,0.09331202173326109
1230.517578,0.09428162022928085
1232.210938,0.09527179249851468
1233.902344,0.0962817868897321
1235.59375,0.09731316877702359
1237.285156,0.0983663807189252
1238.976562,0.09944187269663596
1240.667969,0.1005401023426091
1242.357422,0.10166022343992363
1244.046875,0.10280395942846855
1245.736328,0.10397178368158014
1247.425781,0.105164174427059
1249.115234,0.10638161408064165
1250.802734,0.10762313670610726
1252.492188,0.10889210480263967
1254.179688,0.11018607203244368
1255.867188,0.11150698020998293
1257.554688,0.11285531824538161
1259.240234,0.11422996355483225
1260.927734,0.11563458730545832
1262.613281,0.11706641639283855
1264.298828,0.11852753251135098
1265.984375,0.12001840063524677
1267.667969,0.12153769616585455
1269.353516,0.12308938745579386
1271.037109,0.1246703068854719
1272.720703,0.12628264905180128
1274.404297,0.12792680699354342
1276.087891,0.12960315321983681
1277.771484,0.13131203474712594
1279.453125,0.13305173434437487
1281.134766,0.13482450260716675
1282.816406,0.13663059190796006
1284.498047,0.1384702191807999
1286.179688,0.14034355527081643
1287.859375,0.142248489014956
1289.541016,0.1441895249038804
1291.220703,0.14616216750503694
1292.900391,0.14816860696094172
1294.580078,0.15020872644254557
1296.257812,0.15227990885092002
1297.9375,0.15438671031585055
1299.615234,0.15652387678792648
1301.292969,0.1586933971709908
1302.970703,0.1608947261189859
1304.646484,0.16312459987156427
1306.324219,0.16538745688790749
1308.0,0.16767714736918374
1309.675781,0.16999528446949408
1311.351562,0.17234072937101064
1313.027344,0.17471220337335966
1314.703125,0.17710827502627632
1316.376953,0.17952452959242826
1318.050781,0.18196200524514863
1319.724609,0.18441879378803325
1321.398438,0.18689281459503398
1323.072266,0.18938180327203152
1324.744141,0.19188039075256713
1326.417969,0.19439178360484355
1328.089844,0.19690730404948584
1329.761719,0.1994268703406536
1331.433594,0.20194728280612717
1333.103516,0.20446221106602339
