Raman Shift (cm-1),Fitted Intensity
171.300781,0.020154263390767726
173.222656,0.020224954639365536
175.146484,0.020296524423519688
177.068359,0.02036884141472131
178.990234,0.020441992153876758
180.910156,0.02051591564258417
182.832031,0.020590777244430262
184.751953,0.02066644011746247
186.671875,0.020742995555406304
188.591797,0.020820459597248632
190.511719,0.02089884867206521
192.429688,0.020978098428996825
194.347656,0.021058305285855027
196.265625,0.021139486945239094
198.183594,0.02122166142385031
200.099609,0.02130476196360974
202.015625,0.021388890739577573
203.933594,0.021474154472087274
205.847656,0.021560310928876898
207.763672,0.021647642695464243
209.677734,0.02173599253918006
211.59375,0.021825562314522196
213.507812,0.021916191332596518
215.419922,0.022007898698081826
217.333984,0.02210089479800169
219.246094,0.0221950136877829
221.158203,0.022290373897702845
223.070312,0.02238700049279167
224.982422,0.022484919225623207
226.892578,0.022584054362397944
228.802734,0.022684532363150347
230.712891,0.022786381098258042
232.623047,0.022889629061393843
234.533203,0.022994305717594934
236.441406,0.02310033204836795
238.349609,0.023207845372878323
240.257812,0.023316877620780822
242.166016,0.0234274617137665
244.072266,0.023539515742521888
245.980469,0.023653304175536287
247.886719,0.023768629892968636
249.791016,0.0238855246057243
251.697266,0.02400426601825178
253.601562,0.024124649804652787
255.507812,0.024246963322962903
257.412109,0.02437099738931393
259.314453,0.024496789033914654
261.21875,0.02462464062874578
263.121094,0.024754335366242435
265.023438,0.024886050229584226
266.925781,0.025019833529116
268.828125,0.025155735372487706
270.728516,0.02529366443016698
272.628906,0.02543381223106033
274.529297,0.025576233889810288
276.429688,0.025720986167603092
278.330078,0.025868127769667557
280.228516,0.026017564657149148
282.126953,0.02616950940049195
284.025391,0.026324027122421656
285.923828,0.026481184936740475
287.822266,0.02664105270635229
289.71875,0.026803533714249428
291.615234,0.026968865753407262
293.511719,0.0271371263330968
295.40625,0.027308217648190407
297.302734,0.027482575821131096
299.197266,0.027659928199900204
301.091797,0.02784054217501486
302.986328,0.028024510976218532
304.878906,0.028211736412657284
306.773438,0.028402705608175604
308.666016,0.028597129186908606
310.558594,0.02879531101293648
312.449219,0.028997153811361157
314.341797,0.029203192511635556
316.232422,0.02941312466049087
318.123047,0.029627288768307662
320.013672,0.029845818404183697
321.904297,0.030068853063229192
323.792969,0.030296300870791215
325.681641,0.030528541828828838
327.570312,0.030765734809538845
329.458984,0.03100804654710211
331.347656,0.0312556513644317
333.234375,0.03150846760012755
335.121094,0.03176693991451911
337.007812,0.03203126918559043
338.894531,0.032301667020471686
340.779297,0.03257806591364275
342.664062,0.03286097593623013
344.548828,0.03315064359268219
346.433594,0.03344732862946085
348.318359,0.033751305564225835
350.201172,0.03406253853856664
352.085938,0.03438198084702876
353.96875,0.034709296509151874
355.849609,0.035044806108245515
357.732422,0.03538957523472172
359.613281,0.035743281064831295
361.494141,0.03610669651419167
363.375,0.03648027085784998
365.255859,0.036864487384660104
367.134766,0.037259450261385454
369.015625,0.03766654212314778
370.894531,0.03808552632934986
372.773438,0.038517481517828654
374.650391,0.03896266017008744
376.529297,0.039422782949105846
378.40625,0.039897768868824054
380.283203,0.040389060320938
382.160156,0.04089774411170777
384.035156,0.041424486148755844
385.912109,0.04197177443321577
387.787109,0.04254006368049002
389.662109,0.04313175980300925
391.537109,0.04374903171260432
393.410156,0.044393773417997474
395.283203,0.045069725400719386
397.15625,0.045780713354388804
399.029297,0.046531532778216374
400.902344,0.047328325041642944
402.773438,0.04817822591005779
404.646484,0.049093842520740984
406.517578,0.05008825010035846
408.388672,0.05118372219377484
410.257812,0.05241020137570038
412.128906,0.05381700156447365
413.998047,0.055471036598350065
415.867188,0.05747489587514133
417.736328,0.05996375689731526
419.603516,0.06308615813871324
421.470703,0.06695851195738306
423.339844,0.07156306497771368
425.207031,0.07661599065329795
427.072266,0.08154264374287741
428.939453,0.085583877536209
430.804688,0.088034831102018
432.669922,0.08858416072596757
434.535156,0.08745062229620415
436.400391,0.08528348241919936
438.263672,0.08287382479530199
440.126953,0.08085635898931756
441.990234,0.07957733753107943
443.853516,0.07911539251491662
445.716797,0.07938867698069578
447.578125,0.08025960286574829
449.439453,0.08160161844722778
451.300781,0.08332125606573423
453.162109,0.08535858734229074
455.023438,0.08767977495895868
456.882812,0.09026642231512505
458.742188,0.0931178192728827
460.601562,0.09623969421831699
462.460938,0.09964423042419984
464.318359,0.1033445777593728
466.177734,0.10736986729459495
468.035156,0.11173650078559552
469.892578,0.11647645948317926
471.748047,0.12161471272408794
473.605469,0.12719488953633193
475.460938,0.133239748705233
477.316406,0.13979048648637
479.171875,0.14688301638090023
481.025391,0.1545442575841454
482.880859,0.16282391841326693
484.734375,0.17173508465593262
486.587891,0.1813121206092969
488.441406,0.1915748523499405
490.292969,0.20252327532835993
492.146484,0.21418258899386325
493.998047,0.226518717383747
495.849609,0.23952063942219248
497.701172,0.2531504077872475
499.550781,0.26733839498877854
501.402344,0.28204293342126036
503.251953,0.29714364623619105
505.101562,0.3125488652285131
506.949219,0.328118268850859
508.798828,0.3437456680995815
510.646484,0.3592460677225681
512.494141,0.37447397489802825
514.341797,0.3892608634908616
516.189453,0.40343592229458114
518.035156,0.4168169506161374
519.880859,0.429258447551798
521.728516,0.44062298446826825
523.572266,0.45074426673041884
525.417969,0.45954533666394565
527.261719,0.4669212855645848
529.107422,0.4728287916283119
530.951172,0.47722578614310035
532.792969,0.4801175779281879
534.636719,0.4815405873330103
536.478516,0.4815503621007331
538.322266,0.4802315209869162
540.164062,0.477693955962025
542.003906,0.47406691008314084
543.845703,0.46948214386755144
545.685547,0.46409778139761654
547.525391,0.45806192974200216
549.365234,0.45152653017609296
551.205078,0.4446385338048361
553.044922,0.43753600072638055
554.882812,0.4303524433894198
556.720703,0.42319117847642784
558.558594,0.4161465103872808
560.396484,0.40929525181998677
562.232422,0.40270328888857254
564.068359,0.39640474564407063
565.90625,0.39041857276527075
567.740234,0.38477353949097304
569.576172,0.37944812405727707
571.412109,0.37443443678882277
573.246094,0.36971431423138645
575.080078,0.36525257205306205
576.914062,0.3610149442067284
578.746094,0.3569688609236495
580.580078,0.3530682796713756
582.412109,0.3492851437468468
584.244141,0.3455813360748968
586.076172,0.3419266145771247
587.90625,0.3382992092992237
589.738281,0.33467111942639066
591.568359,0.33103573816815557
593.398438,0.32738111065244857
595.228516,0.3237055947593039
597.056641,0.3200179926725894
598.886719,0.31632172736022085
600.714844,0.312642263341018
602.542969,0.30899926394300575
604.371094,0.3054220602196555
606.197266,0.30194893804881306
608.025391,0.2986118503825934
609.851562,0.29546135433318044
611.677734,0.2925404359262193
613.503906,0.2898979102537253
615.328125,0.287585706541741
617.152344,0.2856495103832092
618.978516,0.284133810203871
620.800781,0.2830835024256665
622.625,0.28252749277074024
624.449219,0.2824897136023317
626.271484,0.28297859312022605
628.09375,0.2839871111499553
629.916016,0.2854904669205508
631.738281,0.28744427358360314
633.558594,0.28978139873140146
635.380859,0.292423209804253
637.201172,0.2952635052154613
639.021484,0.298191215001504
640.839844,0.3010813612304331
642.660156,0.30381640460950693
644.478516,0.30627202528640834
646.296875,0.3083452948437695
648.115234,0.30994955220634585
649.933594,0.3110234239992424
651.75,0.3115350728135321
653.566406,0.31148670109004667
655.382812,0.31091171994804995
657.199219,0.30987445125986224
659.015625,0.3084663950361721
660.830078,0.3068027538189806
662.646484,0.30500849798929625
664.460938,0.3032241980400505
666.275391,0.30158600938797486
668.087891,0.30022839304861104
669.902344,0.2992714016824593
671.714844,0.2988258461745853
673.527344,0.2989825103140265
675.339844,0.29981566336638527
677.150391,0.3013797334763235
678.962891,0.30371788470126837
680.773438,0.3068498990732504
682.583984,0.31078995588206737
684.394531,0.315539793729658
686.205078,0.3210931106432663
688.013672,0.3274304180750755
689.822266,0.334540979285446
691.630859,0.3424058092464896
693.439453,0.35100429910607406
695.248047,0.3603148827320997
697.054688,0.3703042707520886
698.861328,0.38095963515878106
700.667969,0.39225797178832283
702.474609,0.40417550742035796
704.28125,0.4166874289972514
706.085938,0.4297530265737356
707.890625,0.44335749016870857
709.695312,0.4574705985638645
711.5,0.4720595524443855
713.304688,0.48708863542903563
715.107422,0.502502058006993
716.910156,0.5182737365661835
718.712891,0.5343580400776361
720.515625,0.5507057170586758
722.318359,0.5672639413583912
724.119141,0.5839581827645847
725.919922,0.6007466815735466
727.720703,0.617566696127148
729.521484,0.6343525810469409
731.322266,0.6510361563684326
733.121094,0.66752930099009
734.919922,0.6837784599616586
736.71875,0.6997108056125663
738.517578,0.7152529973829198
740.316406,0.7303318161338654
742.113281,0.744859363214009
743.910156,0.7587815734282051
745.707031,0.7720299522480715
747.503906,0.7845389393671375
749.300781,0.796246636675257
751.095703,0.8070842201107599
752.890625,0.8170125868861567
754.685547,0.8259851811228299
756.480469,0.8339617871742601
758.275391,0.840909103016531
760.068359,0.8467954229309772
761.861328,0.8516109405334893
763.654297,0.8553459415663981
765.447266,0.8579992459622408
767.240234,0.8595784300527097
769.03125,0.8600999746783037
770.822266,0.8595915420640777
772.613281,0.8580874096940553
774.404297,0.8556306748518011
776.195312,0.8522730935051613
777.984375,0.8480798403712756
779.773438,0.8431157790990669
781.5625,0.8374566501550144
783.351562,0.8311854458382005
785.140625,0.8243919179877301
786.927734,0.8171801117263318
788.714844,0.8096440831100661
790.501953,0.8018899391690163
792.289062,0.7940279172670628
794.076172,0.7861715805655394
795.861328,0.7784452763522821
797.646484,0.7709574377588788
799.433594,0.7638178877153097
801.216797,0.757165867290159
803.001953,0.7510930427200736
804.785156,0.7457231846382033
806.570312,0.7411499852377629
808.353516,0.7374818688520874
810.136719,0.734803021339196
811.917969,0.7331936464040885
813.701172,0.7327166522780831
815.482422,0.7334249132038185
817.263672,0.7353526074873621
819.044922,0.7385167750766433
820.824219,0.7429089991536427
822.605469,0.7485146530894236
824.384766,0.7552748477507398
826.164062,0.7631255729115431
827.943359,0.7719743572128708
829.722656,0.7817063047857052
831.5,0.7921735282861893
833.279297,0.8032440379944333
835.056641,0.8147225019546889
836.832031,0.8264242845820531
838.609375,0.8381834009390352
840.386719,0.849791748301182
842.162109,0.8610440037281963
843.9375,0.871768518532384
845.712891,0.8817949047788872
847.488281,0.8909730731396076
849.261719,0.8991707057898728
851.035156,0.9063064314528753
852.810547,0.9123304469576057
854.582031,0.9172086670261269
856.355469,0.9209850607033877
858.128906,0.9237223464531952
859.900391,0.9255294314714021
861.671875,0.9265585057073142
863.443359,0.926991661591846
865.214844,0.9270373159929324
866.984375,0.9269211989347774
868.755859,0.9268746844122066
870.525391,0.927123065651093
872.294922,0.9278718631679551
874.064453,0.9292939288641103
875.832031,0.9315134680439092
877.601562,0.9346053235619937
879.369141,0.93856656441902
881.136719,0.9433325997943579
882.904297,0.9487633624655414
884.669922,0.9546434008195437
886.4375,0.9607178154630787
888.203125,0.9666613323374209
889.96875,0.9721449287019772
891.734375,0.9768335638590214
893.498047,0.980417743262893
895.263672,0.98265812807526
897.027344,0.9833910313587247
898.791016,0.9825760213186535
900.554688,0.9803052882758182
902.316406,0.976823291542651
904.080078,0.9725090550850468
905.841797,0.9678879735421932
907.603516,0.9635641219077566
909.365234,0.9601815225041238
911.126953,0.958341895617303
912.886719,0.9585095630523556
914.646484,0.9609102168126735
916.408203,0.9654502673018192
918.166016,0.9716147580586819
919.925781,0.9785016602830733
921.685547,0.9847919879869097
923.443359,0.9888728497760843
925.201172,0.9890059657563406
926.958984,0.9835027297421373
928.716797,0.970944608617235
930.472656,0.9504033704513767
932.230469,0.9214789272532331
933.986328,0.884540388388803
935.742188,0.84049227617314
937.496094,0.7908384667960714
939.251953,0.7372528177517635
941.005859,0.6817738122978809
942.761719,0.6261408316328221
944.515625,0.5721163889216544
946.267578,0.5209993385911006
948.021484,0.47359893049520346
949.773438,0.43056379000477646
951.527344,0.392005551674949
953.279297,0.35794884630147855
955.029297,0.32812625728486733
956.78125,0.3020996992033988
958.533203,0.2794754885777571
960.283203,0.2598339568802197
962.033203,0.24272997007043723
963.783203,0.22778420569707467
965.53125,0.21467806713009285
967.28125,0.20309846082530503
969.029297,0.19283307840461383
970.777344,0.18367039550511535
972.525391,0.17544696018815448
974.273438,0.16802799473470217
976.019531,0.16130945694264284
977.767578,0.1551843734842913
979.513672,0.14959016446621262
981.259766,0.14445605292911157
983.005859,0.13972865960218536
984.75,0.1353676564629531
986.496094,0.13132517253550027
988.240234,0.12757788468945486
989.984375,0.12409349488574094
991.728516,0.12084839518393645
993.470703,0.11782563490656733
995.214844,0.11500112103476172
996.957031,0.11236638939260471
998.699219,0.10990555262167696
1000.441406,0.10760790010286767
1002.181641,0.10546670975956207
1003.923828,0.10346963041737296
1005.664062,0.10161492006395229
1007.404297,0.09989522052183697
1009.144531,0.09830654267840483
1010.884766,0.09684582319316526
1012.623047,0.09551224986408571
1014.363281,0.0943012965955369
1016.101562,0.09321476047149664
1017.839844,0.09225079158793381
1019.576172,0.0914102374371488
1021.314453,0.09069145567262463
1023.050781,0.09009647433029368
1024.787109,0.0896248747905454
1026.523438,0.08927703798341156
1028.259766,0.08905314349518523
1029.996094,0.08895304151917813
1031.730469,0.08897603193191543
1033.464844,0.0891207507501864
1035.199219,0.08938531730234286
1036.933594,0.08976703844235148
1038.667969,0.09026230431004789
1040.400391,0.09086575691826723
1042.134766,0.09157305942121177
1043.867188,0.0923757903452646
1045.599609,0.09326669100081067
1047.330078,0.09423544211325821
1049.0625,0.0952738773275946
1050.792969,0.09636818390979497
1052.523438,0.09750696834832004
1054.253906,0.09867673060869683
1055.984375,0.0998631231417808
1057.712891,0.10104975973276922
1059.443359,0.10222375881916379
1061.171875,0.10336660124612304
1062.900391,0.10446364765961244
1064.628906,0.1054990306264075
1066.355469,0.10645619445941293
1068.083984,0.10732237693144352
1069.810547,0.10808153703653635
1071.537109,0.10872168533908029
1073.263672,0.10923106768893463
1074.990234,0.10959939599091433
1076.714844,0.10981786794177657
1078.439453,0.10988015544731425
1080.164062,0.10978133712556794
1081.888672,0.10951847914212114
1083.613281,0.10909068306914807
1085.337891,0.10849909374960011
1087.060547,0.10774781329612057
1088.783203,0.10684135466935935
1090.505859,0.10578664755210684
1092.228516,0.10459232548501834
1093.951172,0.10326856524162249
1095.671875,0.10182859050826693
1097.392578,0.10028359930639709
1099.113281,0.09864713416768314
1100.833984,0.09693341961878699
1102.554688,0.09515712379540593
1104.273438,0.09333521796082687
1105.992188,0.0914805230710119
1107.712891,0.08960547185160822
1109.429688,0.08773058731834489
1111.148438,0.08586296757945808
1112.867188,0.08401745515098745
1114.583984,0.0822078695553421
1116.300781,0.08044280587926228
1118.017578,0.07873185533929733
1119.734375,0.07708343007304189
1121.449219,0.07550648475985167
1123.166016,0.07400340306870654
1124.880859,0.072582369389461
1126.595703,0.07124522024936422
1128.310547,0.06999443436389857
1130.025391,0.0688314429419341
1131.738281,0.06775788501976242
1133.451172,0.06677197406168814
1135.164062,0.06587252317851933
1136.876953,0.06505766557152426
1138.589844,0.06432495944282168
1140.302734,0.06367148646561417
1142.013672,0.06309456484983718
1143.724609,0.06258983430234366
1145.435547,0.062153524426127295
1147.146484,0.061781746847025115
1148.855469,0.061470886892465285
1150.566406,0.061216317534539856
1152.275391,0.06101477904958401
1153.984375,0.060862228982839855
1155.693359,0.060755100891289465
1157.402344,0.06069001270046087
1159.109375,0.060663798361779805
1160.816406,0.06067341803317677
1162.525391,0.06071622861496193
1164.230469,0.060789556040508265
1165.9375,0.06089136470672897
1167.644531,0.06101958477782536
1169.349609,0.061172251734159105
1171.054688,0.06134794437145979
1172.759766,0.06154531503954136
1174.464844,0.061763210107882646
1176.169922,0.06200065665193888
1177.873047,0.06225654534669166
1179.576172,0.06253048805358222
1181.28125,0.06282232029847812
1182.982422,0.06313062884850437
1184.685547,0.06345618149379759
1186.388672,0.06379847423728602
1188.089844,0.06415702066802102
1189.791016,0.064532223605366
1191.492188,0.06492417931315007
1193.193359,0.0653330526639028
1194.892578,0.06575857242261389
1196.59375,0.06620199983301459
1198.292969,0.06666265076443958
1199.992188,0.06714140462754534
1201.691406,0.0676386844905525
1203.390625,0.06815495414501478
1205.087891,0.06869008655922054
1206.785156,0.0692451973702289
1208.482422,0.06982085389392395
1210.179688,0.07041765406990277
1211.876953,0.07103622617452729
1213.574219,0.07167722897146195
1215.269531,0.07234057055387307
1216.964844,0.07302768822795991
1218.660156,0.07373932023774193
1220.355469,0.07447623300358137
1222.050781,0.07523921720612603
1223.744141,0.0760281649724313
1225.4375,0.07684477799691522
1227.130859,0.07768991956687583
1228.824219,0.078564476286268
1230.517578,0.07946935558393799
1232.210938,0.08040548837873782
1233.902344,0.08137268793148135
1235.59375,0.08237298194507299
1237.285156,0.08340735346389168
1238.976562,0.08447680122739258
1240.667969,0.08558233844778096
1242.357422,0.0867236468918373
1244.046875,0.08790301272546341
1245.736328,0.08912147267731133
1247.425781,0.09038006734840864
1249.115234,0.09167983809596185
1250.802734,0.09302024753847957
1252.492188,0.09440543051523156
1254.179688,0.09583320240927212
1255.867188,0.09730614418401869
1257.554688,0.09882524084125366
1259.240234,0.10038961230756177
1260.927734,0.1020038167886528
1262.613281,0.10366501234411907
1264.298828,0.10537589357551864
1265.984375,0.1071372688130397
1267.667969,0.10894776390760522
1269.353516,0.11081227584183827
1271.037109,0.11272711286229256
1272.720703,0.11469496468526286
1274.404297,0.11671630811870996
1276.087891,0.11879153445440815
1277.771484,0.12092093962622907
1279.453125,0.1231021569823046
1281.134766,0.12533771010925984
1282.816406,0.12762756741571438
1284.498047,0.1299715774868209
1286.179688,0.1323694533818834
1287.859375,0.13481789148377504
1289.541016,0.137322018399302
1291.220703,0.13987529290587125
1292.900391,0.14247971524284586
1294.580078,0.14513423617386256
1296.257812,0.14783446823404373
1297.9375,0.15058530589576477
1299.615234,0.1533787756263925
1301.292969,0.15621629389922456
1302.970703,0.15909590938677423
1304.646484,0.16201206176204622
1306.324219,0.16496921564709233
1308.0,0.16795795557414273
1309.675781,0.17097898217196555
1311.351562,0.174029376371875
1313.027344,0.17710602498207753
1314.703125,0.1802056153645013
1316.376953,0.1833210046063704
1318.050781,0.186452118768578
1319.724609,0.18959510356610546
1321.398438,0.19274593218485517
1323.072266,0.19590040513997878
1324.744141,0.19905049246295406
1326.417969,0.2021990550567219
1328.089844,0.20533411615316904
