Raman Shift (cm-1),Fitted Intensity
150.119141,0.01750449053924601
152.046875,0.019348900043432805
153.974609,0.02136475898268788
155.900391,0.02355360384619149
157.828125,0.02592173991876966
159.753906,0.02846398063555927
161.679688,0.031179728995411486
163.603516,0.03406031153412534
165.529297,0.03710296575757814
167.453125,0.0402898165347171
169.376953,0.043608978518850025
171.300781,0.047042329826443366
173.222656,0.05056493811294888
175.146484,0.05415959472737877
177.068359,0.05779179298323866
178.990234,0.06143537152961215
180.910156,0.0650546529420489
182.832031,0.06862320703780157
184.751953,0.07209873330428714
186.671875,0.07544913491386729
188.591797,0.07863852660243081
190.511719,0.08163154009502856
192.429688,0.08439130968575576
194.347656,0.0868887558400887
196.265625,0.08909416455132194
198.183594,0.09098096766572233
200.099609,0.09252495556215265
202.015625,0.09370976108658637
203.933594,0.0945223457981761
205.847656,0.09495235923035726
207.763672,0.09499886019819803
209.677734,0.094664834472828
211.59375,0.09395888797402241
213.507812,0.09289817221810316
215.419922,0.09150607756815665
217.333984,0.08980890275794567
219.246094,0.08784618172902502
221.158203,0.08565946390692812
223.070312,0.08329902025386685
224.982422,0.08082221075313252
226.892578,0.07829584752638796
228.802734,0.07578783062119725
230.712891,0.07337405913076246
232.623047,0.07113466723644234
234.533203,0.06915218093174003
236.441406,0.06751054529374725
238.349609,0.06628664279141064
240.257812,0.06555265462319755
242.166016,0.06536965783135414
244.072266,0.06578233335097337
245.980469,0.06681668452399903
247.886719,0.0684712640335586
249.791016,0.07071694011176534
251.697266,0.0735008307438301
253.601562,0.07672888300269615
255.507812,0.08028944641403972
257.412109,0.08403063425247645
259.314453,0.08778666187986488
261.21875,0.09138632135021625
263.121094,0.09463896007601895
265.023438,0.09737064958877927
266.925781,0.09941928136937915
268.828125,0.10064810545360162
270.728516,0.10095431541798468
272.628906,0.10027692299135596
274.529297,0.09859694637446952
276.429688,0.09593995337494347
278.330078,0.09237393142401958
280.228516,0.08800924833984844
282.126953,0.0829781149100932
284.025391,0.0774373605186252
285.923828,0.07155556717073655
287.822266,0.06550329512897102
289.71875,0.05945021290946137
291.615234,0.05353831497553134
293.511719,0.04789497190097009
295.40625,0.042627997000446775
297.302734,0.03780236728071312
299.197266,0.03347711091972358
301.091797,0.029671077848680855
302.986328,0.026386228266217282
304.878906,0.02360877742339917
306.773438,0.021302416245280717
308.666016,0.019431389198857906
310.558594,0.01794656014189831
312.449219,0.01679984700120844
314.341797,0.015940053356042563
316.232422,0.015322587981949397
318.123047,0.014903986457126454
320.013672,0.014646599655160084
321.904297,0.01451796435179246
323.792969,0.014490790509965408
325.681641,0.014542584262641736
327.570312,0.014655467725515925
329.458984,0.014815420598199744
331.347656,0.015011682867188823
333.234375,0.015235929865088078
335.121094,0.015482432232578298
337.007812,0.015746949499761985
338.894531,0.01602652550605561
340.779297,0.01631885944109855
342.664062,0.016622957679233476
344.548828,0.016938060470445493
346.433594,0.01726377706410223
348.318359,0.017599978893694038
350.201172,0.017946358251492746
352.085938,0.01830382106079952
353.96875,0.018671907157269584
355.849609,0.019050931273157417
357.732422,0.019442082242054695
359.613281,0.01984499146607002
361.494141,0.020260538167863048
363.375,0.020689234194169424
365.255859,0.02113162373125771
367.134766,0.021587800724843356
369.015625,0.022059320123273052
370.894531,0.022545842504960473
372.773438,0.02304852379204887
374.650391,0.023567525043839157
376.529297,0.024104675513066703
378.40625,0.024659647670717984
380.283203,0.025233822841782313
382.160156,0.02582807992397983
384.035156,0.02644269604292531
385.912109,0.027079932233221547
387.787109,0.02773949804800146
389.662109,0.02842313981264062
391.537109,0.029132016576671405
393.410156,0.029866575834216796
395.283203,0.03062883949024455
397.15625,0.03142018255625512
399.029297,0.03224206368347661
400.902344,0.03309603110163405
402.773438,0.033982785276719864
404.646484,0.0349059224103135
406.517578,0.0358653716222233
408.388672,0.03686404583517208
410.257812,0.037902932989350095
412.128906,0.038986435596399915
413.998047,0.040114664397457395
415.867188,0.041291254985678184
417.736328,0.042518902908595446
419.603516,0.043799118687567896
421.470703,0.04513621944683637
423.339844,0.04653497294898945
425.207031,0.04799595542035773
427.072266,0.04952270338056141
428.939453,0.05112241120078527
430.804688,0.052796008756350536
432.669922,0.054549703371017805
434.535156,0.0563883963164359
436.400391,0.05831734095845123
438.263672,0.060339994478946835
440.126953,0.06246435042716955
441.990234,0.06469686793855069
443.853516,0.06704447897812389
445.716797,0.06951461876356047
447.578125,0.0721124738240821
449.439453,0.07484910733684598
451.300781,0.07773368217986236
453.162109,0.08077602747315317
455.023438,0.08398668451904236
456.882812,0.08737328724306934
458.742188,0.09095117777409072
460.601562,0.0947332443165672
462.460938,0.09873327123053284
464.318359,0.10296136920629698
466.177734,0.10744205993997943
468.035156,0.11218249202326083
469.892578,0.11720475307827004
471.748047,0.12252154720842803
473.605469,0.1281634251861437
475.460938,0.13413868899762116
477.316406,0.14047396355727715
479.171875,0.1471906716648834
481.025391,0.15430282201923765
482.880859,0.16184709064108527
484.734375,0.1698288241072545
486.587891,0.1782759378938259
488.441406,0.1872069317394029
490.292969,0.19662752988351961
492.146484,0.20656983040893603
493.998047,0.21702012573744708
495.849609,0.22798928643501842
497.701172,0.23946962094572166
499.550781,0.2514300597929584
501.402344,0.2638649309380077
503.251953,0.2767018390574499
505.101562,0.28988977938765564
506.949219,0.30333034511383244
508.798828,0.3169456257963527
510.646484,0.3305770002832277
512.494141,0.3440848555135878
514.341797,0.35729198880229024
516.189453,0.37000063256627985
518.035156,0.3819849462698986
519.880859,0.3930369045635631
521.728516,0.4029448338933405
523.572266,0.4114690626287959
525.417969,0.4184517285111126
527.261719,0.42372615955964593
529.107422,0.4271970183496426
530.951172,0.42880429077282595
532.792969,0.4285594777305753
534.636719,0.42652623861003325
536.478516,0.42282752488499153
538.322266,0.4176211262736532
540.164062,0.4111194451063978
542.003906,0.40355079962326956
543.845703,0.39513372421371423
545.685547,0.3861180780087847
547.525391,0.37671374657089485
549.365234,0.36711629848830646
551.205078,0.35749055956263953
553.044922,0.34796383851690127
554.882812,0.3386293168713127
556.720703,0.32950971877394175
558.558594,0.3205818027299363
560.396484,0.31176280620552255
562.232422,0.3029237742429699
564.068359,0.29387880651176795
565.90625,0.28443608957920336
567.740234,0.2744854718942478
569.576172,0.26393779445701404
571.412109,0.2528479788498553
573.246094,0.24136390453477366
575.080078,0.22966326560525088
576.914062,0.21794695668988728
578.746094,0.206407565890935
580.580078,0.19516444289585794
582.412109,0.1843465249889722
584.244141,0.174012820161859
586.076172,0.16420808743419282
587.90625,0.15496694234331507
589.738281,0.1462801894708675
591.568359,0.13816595299425738
593.398438,0.13060578099745082
595.228516,0.1235839940403591
597.056641,0.11708607334032269
598.886719,0.11107260088154433
600.714844,0.10552762178221874
602.542969,0.10041344618286283
604.371094,0.09569780661948997
606.197266,0.09135257461048854
608.025391,0.08733639305726482
609.851562,0.08362701690120665
611.677734,0.08019090893126113
613.503906,0.07700112037466267
615.328125,0.07403612769676714
617.152344,0.07127035292183544
618.978516,0.06868155171171467
620.800781,0.0662605932932589
622.625,0.06398453172914728
624.449219,0.06184322936702478
626.271484,0.05982786703612935
628.09375,0.05792690257573745
629.916016,0.05613268632561533
631.738281,0.05443893779234705
633.558594,0.052842274003721615
635.380859,0.05133536068907741
637.201172,0.04991857328184814
639.021484,0.048588399854313506
640.839844,0.047345252994763914
642.660156,0.04618656074381937
644.478516,0.04511589358116065
646.296875,0.044134071899516764
648.115234,0.043244278896628165
649.933594,0.042450838481868806
651.75,0.04175997838723575
653.566406,0.041177613698169115
655.382812,0.04071195262563876
657.199219,0.04037268712729577
659.015625,0.04017109166558644
660.830078,0.04012008843165026
662.646484,0.04023428069336004
664.460938,0.040529970839455615
666.275391,0.04102565383200258
668.087891,0.04174089004640322
669.902344,0.04269969571159263
671.714844,0.043924505269839154
673.527344,0.04544274282090841
675.339844,0.04728294972804744
677.150391,0.0494730473913831
678.962891,0.052050048503443504
680.773438,0.055042313117957695
682.583984,0.05848775286801234
684.394531,0.062422931799725107
686.205078,0.06688530833190034
688.013672,0.07190713409849353
689.822266,0.07753090961180135
691.630859,0.08379423674706385
693.439453,0.09073382023596416
695.248047,0.09838485899718125
697.054688,0.10677094509977389
698.861328,0.11593011084850784
700.667969,0.1258890274536584
702.474609,0.1366701091150765
704.28125,0.14829081320602852
706.085938,0.16074891130670155
707.890625,0.17406175788636555
709.695312,0.18822749516559595
711.5,0.20323649745267416
713.304688,0.21907076665438305
715.107422,0.2356850214085616
716.910156,0.2530599616687709
718.712891,0.2711500701296614
720.515625,0.2899001079830925
722.318359,0.309245151312043
724.119141,0.32908891864352785
725.919922,0.3493685016082748
727.720703,0.3699915841557071
729.521484,0.39085767836951973
731.322266,0.41185894995856853
733.121094,0.432858374151591
734.919922,0.45375958540536193
736.71875,0.4744395195230595
738.517578,0.49477255136745873
740.316406,0.5146320100463507
742.113281,0.5338712438933217
743.910156,0.5523886129207819
745.707031,0.5700645525511662
747.503906,0.586785118711501
749.300781,0.6024436673267645
751.095703,0.616927381486398
752.890625,0.6301668923906847
754.685547,0.6420870420932753
756.480469,0.6526257622863724
758.275391,0.661735166518685
760.068359,0.6693749241516331
761.861328,0.6755387369210054
763.654297,0.6802257350295489
765.447266,0.6834513966538827
767.240234,0.685247501127111
769.03125,0.6856621206431722
770.822266,0.6847610334829529
772.613281,0.6826219347802379
774.404297,0.6793361667286631
776.195312,0.6750075342014487
777.984375,0.6697571060087552
779.773438,0.6637047254899189
781.5625,0.656982254440702
783.351562,0.6497276339544429
785.140625,0.6420830628497768
786.927734,0.6342018397757528
788.714844,0.626220439841726
790.501953,0.6182821935931443
792.289062,0.6105273114435095
794.076172,0.6030911917977885
795.861328,0.5961101800713832
797.646484,0.5896966578259607
799.433594,0.5839562941981363
801.216797,0.5790078872069083
803.001953,0.5749237154379327
804.785156,0.571790267389949
806.570312,0.5696655990097661
808.353516,0.5686060158546664
810.136719,0.5686468263199097
811.917969,0.5698108394216791
813.701172,0.5721119124053593
815.482422,0.5755431793132462
817.263672,0.5800920062422337
819.044922,0.5857316894153043
820.824219,0.5924161049885817
822.605469,0.600110983240028
824.384766,0.6087406871180634
826.164062,0.6182454376572833
827.943359,0.6285496036795714
829.722656,0.6395706014418673
831.5,0.6512068913148019
833.279297,0.6633909285033358
835.056641,0.6759993505495085
836.832031,0.6889318371112757
838.609375,0.702116530521852
840.386719,0.7154386854745697
842.162109,0.7287837974636174
843.9375,0.7420688960561326
845.712891,0.7551994156221126
847.488281,0.7680848519274116
849.261719,0.7806262100870253
851.035156,0.7927587325117471
852.810547,0.8044229169129802
854.582031,0.8155169884162241
856.355469,0.8260232300199268
858.128906,0.8358833082308508
859.900391,0.8450520251208673
861.671875,0.8535160986190257
863.443359,0.8612624226002108
865.214844,0.8682896518455744
866.984375,0.8746018383809082
868.755859,0.8802355847730838
870.525391,0.8852129809340387
872.294922,0.8895866003793881
874.064453,0.8934133774739857
875.832031,0.8967569071695498
877.601562,0.8997006157052505
879.369141,0.902321669402053
881.136719,0.9047133109374682
882.904297,0.9069697934939078
884.669922,0.909185445961739
886.4375,0.9114623484984566
888.203125,0.9138908039581136
889.96875,0.91656457879545
891.734375,0.9195687403224776
893.498047,0.9229757756798526
895.263672,0.926858755854657
897.027344,0.9312611449060034
898.791016,0.9362229083192363
900.554688,0.9417608161145943
902.316406,0.9478615867224809
904.080078,0.9545047653430133
905.841797,0.9616076810529568
907.603516,0.96906743963071
909.365234,0.976721914944767
911.126953,0.984344889397975
912.886719,0.9916254202571564
914.646484,0.9981815770340913
916.408203,1.0035328703858974
918.166016,1.0070863105955568
919.925781,1.0082052490272322
921.685547,1.006197197182095
923.443359,1.000407210190439
925.201172,0.990271455353789
926.958984,0.9754012276744868
928.716797,0.9556438764016735
930.472656,0.9311420026649382
932.230469,0.9022075399227849
933.986328,0.8694757653644489
935.742188,0.8336203100163596
937.496094,0.795443984577535
939.251953,0.7556090368344158
941.005859,0.714891214564574
942.761719,0.6738017595602775
944.515625,0.6329376523298899
946.267578,0.5927099877285544
948.021484,0.5533580433622287
949.773438,0.5152271133518341
951.527344,0.4784314133478294
953.279297,0.443203510794264
955.029297,0.40964902236469214
956.78125,0.3777709596916106
958.533203,0.3476578446061293
960.283203,0.31936642189609377
962.033203,0.2928673726013613
963.783203,0.26814760419037653
965.53125,0.24520256466525703
967.28125,0.22393771709599322
969.029297,0.20434524680047192
970.777344,0.18633513057454534
972.525391,0.16983381913397824
974.273438,0.15476144202802675
976.019531,0.14104824657201362
977.767578,0.12857644751361338
979.513672,0.1172857472402742
981.259766,0.10707364499639549
983.005859,0.09785371756441265
984.75,0.089550853053132
986.496094,0.08206598345340187
988.240234,0.0753395242033361
989.984375,0.0692908992192591
991.728516,0.06385319420792586
993.470703,0.058969684718280305
995.214844,0.05457259581504593
996.957031,0.0506200086097832
998.699219,0.04705981368062624
1000.441406,0.04384968283409811
1002.181641,0.04095468192343981
1003.923828,0.038334341770720495
1005.664062,0.03596429469293369
1007.404297,0.03381459543359102
1009.144531,0.03186142283618608
1010.884766,0.030083675232551618
1012.623047,0.028464424457005207
1014.363281,0.026983536350719928
1016.101562,0.02562976818599923
1017.839844,0.02438850415492875
1019.576172,0.02324956831104206
1021.314453,0.022200292778455744
1023.050781,0.021234074819001643
1024.787109,0.02034172349471991
1026.523438,0.01951614312899935
1028.259766,0.018751001605598696
1029.996094,0.018040636079319734
1031.730469,0.0173806926143172
1033.464844,0.016765809499984505
1035.199219,0.016191915145923677
1036.933594,0.015655347907591516
1038.667969,0.015152811322410607
1040.400391,0.014681849463471614
1042.134766,0.01423872420203404
1043.867188,0.013822022032937179
1045.599609,0.013429053447086456
1047.330078,0.013058259841307427
1049.0625,0.012707030229482743
1050.792969,0.012374554827617545
1052.523438,0.012058979555094012
1054.253906,0.011758995226991056
1055.984375,0.011473416422424365
1057.712891,0.01120147041489356
1059.443359,0.010941571691599818
1061.171875,0.010693427727239321
1062.900391,0.010455942290681537
1064.628906,0.010228392893447898
1066.355469,0.010010364640320677
1068.083984,0.009800768643627474
1069.810547,0.009599537047837772
1071.537109,0.009405936153020947
1073.263672,0.009219517048794467
1074.990234,0.009039870645087718
1076.714844,0.008866815478551313
1078.439453,0.008699804345846444
1080.164062,0.00853852567994456
1081.888672,0.008382694206196518
1083.613281,0.00823204879528763
1085.337891,0.008086349704005742
1087.060547,0.007945534429030622
1088.783203,0.007809234271142706
1090.505859,0.007677264995221537
1092.228516,0.007549457634025927
1093.951172,0.0074256576531576
1095.671875,0.007305857352560663
1097.392578,0.007189785483042879
1099.113281,0.007077324970136418
1100.833984,0.006968369689812211
1102.554688,0.00686282387373342
1104.273438,0.006760716071931768
1105.992188,0.00666184862311088
1107.712891,0.0065660479417306026
1109.429688,0.006473577279806813
1111.148438,0.006384067018695444
1112.867188,0.0062975840836529545
1114.583984,0.0062141903292655416
1116.300781,0.006133763018727363
1118.017578,0.006056288159338537
1119.734375,0.005981760384112752
1121.449219,0.005910262841931535
1123.166016,0.005841644966963622
1124.880859,0.005776084219920596
1126.595703,0.005713531286092408
1128.310547,0.005654026148359149
1130.025391,0.005597618435997609
1131.738281,0.005544426592996256
1133.451172,0.005494454145998525
1135.164062,0.005447781286214328
1136.876953,0.005404498962866406
1138.589844,0.005364709438780656
1140.302734,0.005328526577744705
1142.013672,0.005296111007862257
1143.724609,0.00526755721789805
1145.435547,0.005243015735817449
1147.146484,0.005222650363229152
1148.855469,0.005206654227500081
1150.566406,0.005195182128241511
1152.275391,0.0051884658080093935
1153.984375,0.0051867098792207165
1155.693359,0.005190150072498346
1157.402344,0.0051990379938193455
1159.109375,0.005213621488861373
1160.816406,0.005234191246331201
1162.525391,0.0052610825302704545
1164.230469,0.005294510296626564
1165.9375,0.005334914159359189
1167.644531,0.0053826142391295035
1169.349609,0.005437915890698292
1171.054688,0.005501260356616679
1172.759766,0.005573057628447774
1174.464844,0.005653737260811127
1176.169922,0.00574374844373444
1177.873047,0.005843440092808979
1179.576172,0.005953397184758816
1181.28125,0.006074271786712667
1182.982422,0.006206156605443918
1184.685547,0.006350033195098579
1186.388672,0.0065063235694730265
1188.089844,0.00667541233371668
1189.791016,0.006858075096634162
1191.492188,0.007054934313468361
1193.193359,0.007266630714506306
1194.892578,0.007493553310502751
1196.59375,0.007736898918023347
1198.292969,0.007996799530432506
1199.992188,0.008274230788960044
1201.691406,0.008569912845800496
1203.390625,0.008884579984073028
1205.087891,0.009218582450467715
1206.785156,0.009573025560234762
1208.482422,0.00994867433657181
1210.179688,0.010346301360160598
1211.876953,0.010766685691049056
1213.574219,0.011210611897768636
1215.269531,0.011678313298457007
1216.964844,0.012171072631418171
1218.660156,0.012689673056282056
1220.355469,0.013234895350980274
1222.050781,0.01380751307360184
1223.744141,0.014407584036719477
1225.4375,0.015036503305360188
1227.130859,0.015695009474564967
1228.824219,0.01638382459472303
1230.517578,0.017103649932218492
1232.210938,0.01785516582418912
1233.902344,0.018638102225589075
1235.59375,0.019453930618451236
1237.285156,0.020303241614003778
1238.976562,0.021186590414346684
1240.667969,0.02210449397432629
1242.357422,0.023056304693205146
1244.046875,0.02404348995433816
1245.736328,0.025066427798889096
1247.425781,0.026125443825137457
1249.115234,0.027220807716115278
1250.802734,0.028351400121292974
1252.492188,0.029519986113372247
1254.179688,0.030723943802750172
1255.867188,0.03196461554167889
1257.554688,0.03324194100529241
1259.240234,0.03455424205949877
1260.927734,0.035904347398397624
1262.613281,0.037288836595328806
1264.298828,0.038708873270956165
1265.984375,0.04016399334592346
1267.667969,0.04165189852341824
1269.353516,0.04317539834167337
1271.037109,0.04473022768734281
1272.720703,0.04631730734671407
1274.404297,0.0479357143650165
1276.087891,0.04958443030849116
1277.771484,0.05126233844602386
1279.453125,0.052966232568835515
1281.134766,0.05469673418816788
1282.816406,0.056452437290163096
1284.498047,0.058231841590088734
1286.179688,0.06003334693368946
1287.859375,0.061853130321018655
1289.541016,0.06369363826264102
1291.220703,0.06554871651708838
1292.900391,0.0674185289001882
1294.580078,0.0693010199925659
1296.257812,0.07119184642389488
1297.9375,0.0730931936771104
1299.615234,0.07499834565002962
