Raman Shift (cm-1),Fitted Intensity
171.300781,0.06654523265594378
173.222656,0.07075794119824916
175.146484,0.0753507159842691
177.068359,0.08033552243506521
178.990234,0.08573353827383311
180.910156,0.09154899633015533
182.832031,0.09779584453939952
184.751953,0.10445334939536888
186.671875,0.11150765796684171
188.591797,0.11892528862381041
190.511719,0.1266581483941176
192.429688,0.13463479493248132
194.347656,0.1427850871661156
196.265625,0.15101747562934187
198.183594,0.15922874378224172
200.099609,0.16729888842728227
202.015625,0.17511995607289832
203.933594,0.18258265969461376
205.847656,0.18955286205094732
207.763672,0.19595041534988986
209.677734,0.20167481411757893
211.59375,0.20666911347699704
213.507812,0.21087696051591368
215.419922,0.21427930856533842
217.333984,0.21688726279403833
219.246094,0.2187248002221702
221.158203,0.21984758007951902
223.070312,0.22032847954427331
224.982422,0.22025661595427753
226.892578,0.21973333381238747
228.802734,0.21886549890618884
230.712891,0.21776104310039043
232.623047,0.216524362045283
234.533203,0.2152520918851045
236.441406,0.21403087195304732
238.349609,0.21293090521440997
240.257812,0.2120084490637733
242.166016,0.2113038628116747
244.072266,0.21084212922791018
245.980469,0.21063208963366686
247.886719,0.21067054872963475
249.791016,0.2109415418266346
251.697266,0.211420808360362
253.601562,0.21207505409606778
255.507812,0.21286774084372756
257.412109,0.21375577719108663
259.314453,0.21469555542292404
261.21875,0.21564517715655074
263.121094,0.21655966150224817
265.023438,0.21739871158649357
266.925781,0.21812354853403243
268.828125,0.21869847226315947
270.728516,0.2190909777222986
272.628906,0.219273395446383
274.529297,0.2192213124327451
276.429688,0.2189143218775688
278.330078,0.2183360294145413
280.228516,0.21747503425474526
282.126953,0.21632233568977613
284.025391,0.21487309381809858
285.923828,0.21312601557684374
287.822266,0.21108315613015421
289.71875,0.20875225852245774
291.615234,0.20613944105052887
293.511719,0.2032554123411836
295.40625,0.20011662657819904
297.302734,0.19673178784957468
299.197266,0.19312483806930117
301.091797,0.18931090474659293
302.986328,0.18530971496251425
304.878906,0.18114632943230166
306.773438,0.1768334978799596
308.666016,0.17240183756102978
310.558594,0.16786882045116075
312.449219,0.16326099236550332
314.341797,0.15859024441683645
316.232422,0.15388706867702834
318.123047,0.14916679190479795
320.013672,0.14444865739720966
321.904297,0.13975089145747652
323.792969,0.13509537614381634
325.681641,0.1304930634139924
327.570312,0.12595848363253148
329.458984,0.12150482294034479
331.347656,0.11714391224864569
333.234375,0.11289055831692531
335.121094,0.10874928003081741
337.007812,0.1047278378036688
338.894531,0.1008327100287335
340.779297,0.09707298904688415
342.664062,0.09344867929602609
344.548828,0.08996280789966137
346.433594,0.08661742124796665
348.318359,0.0834136675347635
350.201172,0.08035498359929776
352.085938,0.07743465666937212
353.96875,0.07465775844734542
355.849609,0.07202235524353855
357.732422,0.06952105504263022
359.613281,0.06715680787306529
361.494141,0.06492447266727916
363.375,0.06282143649913523
365.255859,0.0608450322063203
367.134766,0.058994493955792385
369.015625,0.0572634884074342
370.894531,0.055653355503535624
372.773438,0.05416031622624052
374.650391,0.052784271434617246
376.529297,0.05152145478904621
378.40625,0.050374301981564056
380.283203,0.04934212738858265
382.160156,0.04842668711749924
384.035156,0.04763180025987645
385.912109,0.0469604283607067
387.787109,0.04642045110401299
389.662109,0.046019794717383614
391.537109,0.045769724614120245
393.410156,0.045684427230181984
395.283203,0.04578089612590869
397.15625,0.04607977382066032
399.029297,0.04660485348107911
400.902344,0.047382492695066475
402.773438,0.04843916752618581
404.646484,0.04980421691793173
406.517578,0.0514984791232219
408.388672,0.05353971959267922
410.257812,0.055930089879432696
412.128906,0.05866279723458114
413.998047,0.06169893275246193
415.867188,0.06498264265614442
417.736328,0.06842786686791773
419.603516,0.07191784307890908
421.470703,0.0753200510774511
423.339844,0.0784855408938779
425.207031,0.08124988080683782
427.072266,0.08346402837376564
428.939453,0.08500294386889731
430.804688,0.08576723178852033
432.669922,0.0857059567578097
434.535156,0.08481502373454242
436.400391,0.08313974112234682
438.263672,0.08077304810192547
440.126953,0.07783913153656305
441.990234,0.07448722252722721
443.853516,0.07087699836487893
445.716797,0.06716588540469454
447.578125,0.06350216785763824
449.439453,0.06000561165714535
451.300781,0.056775335127396756
453.162109,0.05388516788959969
455.023438,0.05138561504637168
456.882812,0.04930970811515834
458.742188,0.047671148883945705
460.601562,0.046477234794332564
462.460938,0.04573085059013204
464.318359,0.045434662879170105
466.177734,0.04559352874145211
468.035156,0.0462177105348616
469.892578,0.0473241977789194
471.748047,0.04893516092470461
473.605469,0.05108517419726651
475.460938,0.053807408457487146
477.316406,0.057147149351988294
479.171875,0.06115215606481685
481.025391,0.0658677708825541
482.880859,0.07135581054221303
484.734375,0.07765581165549809
486.587891,0.08482131582168177
488.441406,0.09289535207003045
490.292969,0.10190340284753599
492.146484,0.11188991521643323
493.998047,0.12284684890593456
495.849609,0.13478242951644454
497.701172,0.1476780037653753
499.550781,0.16148109825830295
501.402344,0.176163311595816
503.251953,0.19161505555599426
505.101562,0.20775138009150448
506.949219,0.22443324005554263
508.798828,0.241554680384383
510.646484,0.2589201881825058
512.494141,0.27637257917861324
514.341797,0.2937241197234865
516.189453,0.3107783162482202
518.035156,0.327317108131302
519.880859,0.3431588718240468
521.728516,0.3581245139633793
523.572266,0.3719843701691346
525.417969,0.3846160692988204
527.261719,0.3958452684242138
529.107422,0.4055723674474297
530.951172,0.41368146398254424
532.792969,0.4201130645570988
534.636719,0.4248483939359656
536.478516,0.4278779206309065
538.322266,0.4292411298589439
540.164062,0.42899925515698045
542.003906,0.42724997684691424
543.845703,0.4241075745807313
545.685547,0.41971778792255854
547.525391,0.41423354092061687
549.365234,0.4078219136512352
551.205078,0.40065625779892566
553.044922,0.3929109622292502
554.882812,0.38476519891707617
556.720703,0.37637214504106165
558.558594,0.36788013960403304
560.396484,0.3594212732709172
562.232422,0.35111740686286175
564.068359,0.3430515860781786
565.90625,0.33528607079990297
567.740234,0.3278934999712565
569.576172,0.3208767660614007
571.412109,0.3142510372661138
573.246094,0.30801174496545813
575.080078,0.30212502311341355
576.914062,0.29655138004040854
578.746094,0.2912469868080029
580.580078,0.28614447304983465
582.412109,0.2811950716456858
584.244141,0.2763330102238544
586.076172,0.2715001816337843
587.90625,0.2666483088206309
589.738281,0.26172040029052124
591.568359,0.2566889926262847
593.398438,0.2515209598345753
595.228516,0.24619945373030713
597.056641,0.2407252821178948
598.886719,0.2350936650333784
600.714844,0.2293355292628137
602.542969,0.2234755050415358
604.371094,0.21755522225486693
606.197266,0.21163284356078033
608.025391,0.2057566124460901
609.851562,0.20000769649839137
611.677734,0.1944545680582229
613.503906,0.18917652714817346
615.328125,0.18426046113086178
617.152344,0.17978253651235557
618.978516,0.17581884586673788
620.800781,0.17245677503950863
622.625,0.1697530326275908
624.449219,0.1677703140208489
626.271484,0.1665558281596682
628.09375,0.16613830578940436
629.916016,0.1665317558219764
631.738281,0.16773098748288282
633.558594,0.16970763207888181
635.380859,0.17241865434658768
637.201172,0.17578954752744005
639.021484,0.17973350042931036
640.839844,0.18413725725286736
642.660156,0.18888569380006925
644.478516,0.1938314001647891
646.296875,0.1988336929302913
648.115234,0.20374341314987016
649.933594,0.20841327229525525
651.75,0.21269912963835802
653.566406,0.21647988941306848
655.382812,0.21964758459636816
657.199219,0.22211720045461664
659.015625,0.2238304718961621
660.830078,0.22475806321108957
662.646484,0.22490422509940197
664.460938,0.22430208134079752
666.275391,0.22301571669827225
668.087891,0.22113873336864664
669.902344,0.21878266553844863
671.714844,0.21608803282844377
673.527344,0.2132029197811086
675.339844,0.2102874097156596
677.150391,0.20750866805926418
678.962891,0.2050237302896803
680.773438,0.20299468577483706
682.583984,0.20156485220247297
684.394531,0.20086639270780915
686.205078,0.20101467759184774
688.013672,0.2021046678756488
689.822266,0.20421276571205327
691.630859,0.20739583654483082
693.439453,0.2116914016438149
695.248047,0.21711872058547213
697.054688,0.2236726517390249
698.861328,0.23134618987553018
700.667969,0.24011433297085752
702.474609,0.24994136885488094
704.28125,0.2607829229320925
706.085938,0.27257452327234766
707.890625,0.2852711582258913
709.695312,0.29881290909208647
711.5,0.31313726009325055
713.304688,0.32817996270200583
715.107422,0.34385837386298906
716.910156,0.3601226453211089
718.712891,0.3769066199668505
720.515625,0.3941438071083781
722.318359,0.4117674386013597
724.119141,0.42969078982166814
725.919922,0.44786534111687354
727.720703,0.46622314127168407
729.521484,0.4846955825347566
731.322266,0.5032133767502144
733.121094,0.5216865018790176
734.919922,0.540064662015699
736.71875,0.5582769815098061
738.517578,0.576252268958181
740.316406,0.5939192578557757
742.113281,0.6111883627970959
743.910156,0.6280086877083143
745.707031,0.6443109149162213
747.503906,0.6600270806670101
749.300781,0.675091015281305
751.095703,0.6894236184374617
752.890625,0.7029806315487603
754.685547,0.7157042389915994
756.480469,0.7275402756287811
758.275391,0.7384386874025058
760.068359,0.7483437339544194
761.861328,0.7572274226864129
763.654297,0.7650547369195668
765.447266,0.7717964138819573
767.240234,0.7774292872815134
769.03125,0.781932328347698
770.822266,0.7853022771524782
772.613281,0.7875360811440165
774.404297,0.788637874178997
776.195312,0.7886191812080446
777.984375,0.7875009276693902
779.773438,0.7853104867164687
781.5625,0.7820825476386263
783.351562,0.7778598663542748
785.140625,0.7726934420564392
786.927734,0.7666497815162683
788.714844,0.7597915974443504
790.501953,0.7521955899827557
792.289062,0.7439475371715155
794.076172,0.7351425687864723
795.861328,0.7258957639796555
797.646484,0.7163119833071784
799.433594,0.7065045733758499
801.216797,0.6966399819035443
803.001953,0.6868296461236257
804.785156,0.677247659434579
806.570312,0.6680340964848187
808.353516,0.6593766297439709
810.136719,0.6514368183962773
811.917969,0.6443952362445127
813.701172,0.6384074339325909
815.482422,0.633650349052328
817.263672,0.6302680898662113
819.044922,0.628393391817196
820.824219,0.6281332318536257
822.605469,0.6295628082670967
824.384766,0.6327166926633685
826.164062,0.6375899295758011
827.943359,0.6441298645548051
829.722656,0.6522349635111883
831.5,0.6617444008065962
833.279297,0.6724850792593393
835.056641,0.6842018857386111
836.832031,0.6966323073696787
838.609375,0.7095277613802542
840.386719,0.7225957683207033
842.162109,0.7355544621786808
843.9375,0.7481766532032441
845.712891,0.7602586607981299
847.488281,0.7716445918982578
849.261719,0.7822216217817405
851.035156,0.7919577019103246
852.810547,0.8008715105038564
854.582031,0.8089922574662406
856.355469,0.8164434534659866
858.128906,0.8233365531769521
859.900391,0.8297966230775662
861.671875,0.835959757880752
863.443359,0.841937475832917
865.214844,0.8478134762861353
866.984375,0.8536293830834139
868.755859,0.8594064869147748
870.525391,0.8651013364961186
872.294922,0.8706550127453992
874.064453,0.8759758779425216
875.832031,0.8809520288060799
877.601562,0.8854864046004937
879.369141,0.8894740212729025
881.136719,0.8928523886506792
882.904297,0.8955936297083288
884.669922,0.8977177685033656
886.4375,0.8993076077643677
888.203125,0.9004949708551606
889.96875,0.9014701744183523
891.734375,0.9024643162407279
893.498047,0.9037334529219041
895.263672,0.9055429161449622
897.027344,0.9081303006808562
898.791016,0.9116904993885583
900.554688,0.9163416662896755
902.316406,0.9220968357818893
904.080078,0.9288751881619479
905.841797,0.9364501523138413
907.603516,0.9445082674011581
909.365234,0.952644150205943
911.126953,0.9604063691573249
912.886719,0.9673413801887559
914.646484,0.9730757561528115
916.408203,0.9773502726565497
918.166016,0.9800550063903909
919.925781,0.9812917258937488
921.685547,0.981326709699659
923.443359,0.9805637233224065
925.201172,0.9794495146208314
926.958984,0.9783553433361474
928.716797,0.977442506821461
930.472656,0.9765384646677165
932.230469,0.9750486748115433
933.986328,0.971950989786554
935.742188,0.9658582551660633
937.496094,0.9551987769749991
939.251953,0.9383917741547388
941.005859,0.9142054224015829
942.761719,0.8818366472374611
944.515625,0.8412943507120952
946.267578,0.7932816613986658
948.021484,0.7390435311751242
949.773438,0.6805572652615468
951.527344,0.6198233713118184
953.279297,0.5591211381858908
955.029297,0.5003791276936941
956.78125,0.4450214289240848
958.533203,0.3942106633706285
960.283203,0.34861924779444575
962.033203,0.308390998902304
963.783203,0.27339694942976733
965.53125,0.24330776483920183
967.28125,0.21756078100312126
969.029297,0.1956628332838969
970.777344,0.1770347327130494
972.525391,0.16116730104867213
974.273438,0.14760973564263474
976.019531,0.13598829265409618
977.767578,0.12595480495379424
979.513672,0.11726707279446369
981.259766,0.1096976591125403
983.005859,0.10307193157375268
984.75,0.09725458034737228
986.496094,0.09211801837788572
988.240234,0.0875807041120637
989.984375,0.08356063430520266
991.728516,0.07999558173597679
993.470703,0.07683763449167685
995.214844,0.07403738346175406
996.957031,0.07156604646435258
998.699219,0.06939115694010119
1000.441406,0.06748842797668532
1002.181641,0.0658392878698298
1003.923828,0.06442308598951152
1005.664062,0.06322882180982127
1007.404297,0.06224290042179438
1009.144531,0.06145533509065149
1010.884766,0.060857693417326865
1012.623047,0.060443177900534925
1014.363281,0.06020471337291438
1016.101562,0.060137490114141934
1017.839844,0.060236391722940576
1019.576172,0.06049669361783906
1021.314453,0.0609148876806929
1023.050781,0.0614860417983186
1024.787109,0.06220650822612451
1026.523438,0.06307209208050683
1028.259766,0.06407831838595741
1029.996094,0.0652203333463152
1031.730469,0.06649130976145466
1033.464844,0.06788660326200514
1035.199219,0.06939974819553273
1036.933594,0.07102361411392034
1038.667969,0.07275036661597939
1040.400391,0.0745693420814012
1042.134766,0.07647534815485205
1043.867188,0.07845408042404196
1045.599609,0.08049692384137058
1047.330078,0.08259010315093963
1049.0625,0.08472633812383445
1050.792969,0.08688826813222629
1052.523438,0.08906526963866399
1054.253906,0.0912439440677091
1055.984375,0.09341061485691422
1057.712891,0.09554903868075759
1059.443359,0.09765017149797156
1061.171875,0.099695507512371
1062.900391,0.10167391392208727
1064.628906,0.10357222540568566
1066.355469,0.10537580023605787
1068.083984,0.10707670828076915
1069.810547,0.1086598910988399
1071.537109,0.1101170237319345
1073.263672,0.11143881973683996
1074.990234,0.11261711546363623
1076.714844,0.11364389592073137
1078.439453,0.11451495454430612
1080.164062,0.11522603164688398
1081.888672,0.11577427477003402
1083.613281,0.11615826734634506
1085.337891,0.11637804127385538
1087.060547,0.11643509338578745
1088.783203,0.1163326376181191
1090.505859,0.11607490687392165
1092.228516,0.11566743219473255
1093.951172,0.11511696522157716
1095.671875,0.11443223385341543
1097.392578,0.11362156031031248
1099.113281,0.11269470932399504
1100.833984,0.1116622172277217
1102.554688,0.11053525782246501
1104.273438,0.10932692228184815
1105.992188,0.10804797470118267
1107.712891,0.10670907657477073
1109.429688,0.10532716096368443
1111.148438,0.10390981635540206
1112.867188,0.1024706399065634
1114.583984,0.10102302472519993
1116.300781,0.09957663313525568
1118.017578,0.09814223981626222
1119.734375,0.09673001403947595
1121.449219,0.09535099271172434
1123.166016,0.0940107690141555
1124.880859,0.09272031964391157
1126.595703,0.09148518181593021
1128.310547,0.09031158835274125
1130.025391,0.08920490297220515
1131.738281,0.08817075791085173
1133.451172,0.08721147658208667
1135.164062,0.08632984957650104
1136.876953,0.08552786015905418
1138.589844,0.0848067252521237
1140.302734,0.08416693771356562
1142.013672,0.08360890599946517
1143.724609,0.0831310559828067
1145.435547,0.08273202760134325
1147.146484,0.0824099602512655
1148.855469,0.08216279175846433
1150.566406,0.08198727609585774
1152.275391,0.0818808150669637
1153.984375,0.08183990838664063
1155.693359,0.08186108779098632
1157.402344,0.08194072863359467
1159.109375,0.08207491497430326
1160.816406,0.08225992296611093
1162.525391,0.08249223986769796
1164.230469,0.08276720393286964
1165.9375,0.08308194717297135
1167.644531,0.0834325139149218
1169.349609,0.08381488484533567
1171.054688,0.08422600993905993
1172.759766,0.0846625940376618
1174.464844,0.08512149262681683
1176.169922,0.08559972065982514
1177.873047,0.08609388449669393
1179.576172,0.0866018824644209
1181.28125,0.08712184840023875
1182.982422,0.08764968261823305
1184.685547,0.08818506173801512
1186.388672,0.08872542316609866
1188.089844,0.0892683417796675
1189.791016,0.08981279460463801
1191.492188,0.09035728928468245
1193.193359,0.0909004738896645
1194.892578,0.09144051201332525
1196.59375,0.09197755329658988
1198.292969,0.09250939278520963
1199.992188,0.09303578863867133
1201.691406,0.09355598282304695
1203.390625,0.09406931409968178
1205.087891,0.09457463246992387
1206.785156,0.0950720434219249
1208.482422,0.09556113572939448
1210.179688,0.09604156822380747
1211.876953,0.09651306559466631
1213.574219,0.09697541452203429
1215.269531,0.09742794157234014
1216.964844,0.09787108098335719
1218.660156,0.09830477798376297
1220.355469,0.09872902510835378
1222.050781,0.09914385741245825
1223.744141,0.09954889025523037
1225.4375,0.09994472168205576
1227.130859,0.10033150412067396
1228.824219,0.10070942532311766
1230.517578,0.1010787063274865
1232.210938,0.10143960180793256
1233.902344,0.10179199495837563
1235.59375,0.10213662270064602
1237.285156,0.10247383069392377
1238.976562,0.10280399392991513
1240.667969,0.10312751638969081
1242.357422,0.10344446684956467
1244.046875,0.10375568131392254
1245.736328,0.10406164580677355
1247.425781,0.10436287359964413
1249.115234,0.10465990497711727
1250.802734,0.10495296973087723
1252.492188,0.10524333951427511
1254.179688,0.10553096125691433
1255.867188,0.10581681665011407
1257.554688,0.10610157595978875
1259.240234,0.1063856060490665
1260.927734,0.10667028668285233
1262.613281,0.10695570441312716
1264.298828,0.10724295869075211
1265.984375,0.10753284501240568
1267.667969,0.10782584168248818
1269.353516,0.10812347296578007
1271.037109,0.10842591669906174
1272.720703,0.10873440662426427
1274.404297,0.1090498577540727
1276.087891,0.1093732090100654
1277.771484,0.10970542253089591
1279.453125,0.11004708122804692
1281.134766,0.11039956952876537
1282.816406,0.110763913928482
1284.498047,0.1111411632422205
1286.179688,0.11153238677171154
1287.859375,0.11193819330961176
1289.541016,0.1123606358549442
1291.220703,0.11279985888169534
1292.900391,0.11325748726774815
1294.580078,0.11373468111715396
1296.257812,0.11423202616880564
1297.9375,0.11475187155057441
1299.615234,0.11529421069635215
1301.292969,0.11586084989162819
1302.970703,0.11645301348781556
1304.646484,0.11707119945114666
1306.324219,0.1177180891958273
1309.675781,0.1190991707877512
1311.351562,0.11983658888802039
1313.027344,0.12060691572368448
1314.703125,0.12141138612524649
1316.376953,0.12225022683650955
1318.050781,0.12312556366425571
1319.724609,0.12403858722602906
1321.398438,0.12499046626315924
1323.072266,0.1259823401756121
1324.744141,0.1270140871365024
1326.417969,0.12808918436832184
1328.089844,0.12920614204709013
1329.761719,0.13036715441543395
1331.433594,0.13157312474699762
1333.103516,0.1328233970717725
