Raman Shift (cm-1),Fitted Intensity
171.300781,0.036950435978664875
173.222656,0.03997037583626521
175.146484,0.04339348200793302
177.068359,0.047262988041985254
178.990234,0.05163118853096591
180.910156,0.05653688728011051
182.832031,0.062024216738926295
184.751953,0.06810033425886719
186.671875,0.07476650805197234
188.591797,0.08198990312542559
190.511719,0.0897031404540716
192.429688,0.0977919806893995
194.347656,0.10611903989208164
196.265625,0.11450243825911484
198.183594,0.12273014219086101
200.099609,0.13056328916633922
202.015625,0.13777553271052026
203.933594,0.14415072714922708
205.847656,0.1494793161455576
207.763672,0.15363480713249622
209.677734,0.156524689572984
211.59375,0.15813893978493576
213.507812,0.15852833948626036
215.419922,0.15781574009927243
217.333984,0.1561736016961226
219.246094,0.15381860616337156
221.158203,0.15098470579403866
223.070312,0.14791097547030127
224.982422,0.14482365246943354
226.892578,0.1419251812901718
228.802734,0.13937510049301416
230.712891,0.1372943583829358
232.623047,0.13576071050853367
234.533203,0.134810714310741
236.441406,0.13444434258388482
238.349609,0.13462971744303132
240.257812,0.13531244000435746
242.166016,0.1364209183030448
244.072266,0.13787074626279278
245.980469,0.13957615599096718
247.886719,0.14144316335242327
249.791016,0.14338232705976003
251.697266,0.1453123585048335
253.601562,0.14714961341718313
255.507812,0.14882476785441187
257.412109,0.15026895588515524
259.314453,0.15142575259044497
261.21875,0.15224893391590552
263.121094,0.15269710353640345
265.023438,0.15274057307148747
266.925781,0.152357611406833
268.828125,0.15153536414240573
270.728516,0.1502711459717735
272.628906,0.14856838307972328
274.529297,0.14643884675356486
276.429688,0.14390140419977882
278.330078,0.14098126057208077
280.228516,0.1377126273892953
282.126953,0.13412781391987394
284.025391,0.13026547131470076
285.923828,0.12616678975462708
287.822266,0.12187447837040961
289.71875,0.1174364438815182
291.615234,0.1128911409391425
293.511719,0.10828016350196631
295.40625,0.10364797424774727
297.302734,0.09902213966475579
299.197266,0.09444623036817257
301.091797,0.08994609830651495
302.986328,0.08554871967574909
304.878906,0.08128162471696054
306.773438,0.07715538037818326
308.666016,0.07319411611612653
310.558594,0.06940552312269668
312.449219,0.06580189031267206
314.341797,0.06238133556044737
316.232422,0.059153688917907725
318.123047,0.0561156347341631
320.013672,0.05326536373946579
321.904297,0.050599280569213485
323.792969,0.04811480654574947
325.681641,0.04580290033721519
327.570312,0.043656501339128094
329.458984,0.04166793196161917
331.347656,0.03982913040594921
333.234375,0.03813352689666851
335.121094,0.0365708896885044
337.007812,0.03513307708821238
338.894531,0.0338121678857312
340.779297,0.03260175290854262
342.664062,0.031493193367829866
344.548828,0.030479695374573644
346.433594,0.029554918266226027
348.318359,0.028712991036000966
350.201172,0.0279492731726974
352.085938,0.027257269680586005
353.96875,0.026633982309470172
355.849609,0.026075238332575072
357.732422,0.02557636372707689
359.613281,0.025135322849219537
361.494141,0.024748924415153296
363.375,0.024414942567705007
365.255859,0.024131560663002836
367.134766,0.023897587506111338
369.015625,0.02371153818717052
370.894531,0.02357321860953096
372.773438,0.023482263307522976
374.650391,0.02343900169763808
376.529297,0.023444143682792955
378.40625,0.023499015031721908
380.283203,0.02360553033454963
382.160156,0.02376630309932464
384.035156,0.023984468014313476
385.912109,0.024264773782301744
387.787109,0.024611980396530335
389.662109,0.025032921518839645
391.537109,0.025535620182515918
393.410156,0.026129116247022355
395.283203,0.026825505807278716
397.15625,0.027638595864553056
399.029297,0.028584607107127114
400.902344,0.029682319128214542
402.773438,0.03095164927643049
404.646484,0.032418900724256246
406.517578,0.03410641423837696
408.388672,0.03604178102115095
410.257812,0.038247988517835986
412.128906,0.040752238321617694
413.998047,0.04356631516966927
415.867188,0.04670089763583628
417.736328,0.05015186852216516
419.603516,0.05389514755447192
421.470703,0.057895234475506686
423.339844,0.06209653297569633
425.207031,0.0664083295549362
427.072266,0.07072812474483411
428.939453,0.07494594221425507
430.804688,0.07892328883386951
432.669922,0.0825322581545303
434.535156,0.08564702236374654
436.400391,0.08815819334865903
438.263672,0.08998056378933363
440.126953,0.0910668248269635
441.990234,0.09140467740169413
443.853516,0.09102135080450448
445.716797,0.08998167020154324
447.578125,0.08838482997868824
449.439453,0.08635170400439733
451.300781,0.08401940614405878
453.162109,0.08153093477935247
455.023438,0.07902622795288583
456.882812,0.07663716079499222
458.742188,0.07447440714028297
460.601562,0.07263260497661884
462.460938,0.07118698177879106
464.318359,0.07019536920908026
466.177734,0.06969715337689206
468.035156,0.06972285224281205
469.892578,0.07029312657310051
471.748047,0.07142384135875991
473.605469,0.07313415832474579
475.460938,0.07543962798242945
477.316406,0.07836550701060556
479.171875,0.0819416955421443
481.025391,0.08620007741670163
482.880859,0.09119312062631406
484.734375,0.096959671755415
486.587891,0.10355814115827289
488.441406,0.11104380027845755
490.292969,0.11946089613883486
492.146484,0.12887490630940246
493.998047,0.13930284292189268
495.849609,0.1507744835528986
497.701172,0.16328786577480273
499.550781,0.17679786440959297
501.402344,0.19126887405248555
503.251953,0.20656797529054516
505.101562,0.22256647277999667
506.949219,0.23906137347458203
508.798828,0.255862492958187
510.646484,0.2726749480467216
512.494141,0.28923084633765866
514.341797,0.3052297181192241
516.189453,0.3203702851483146
518.035156,0.3343523351421766
519.880859,0.34693911525993987
521.728516,0.35793649931184374
523.572266,0.36717064065576666
525.417969,0.37460693614416457
527.261719,0.38024510027038533
529.107422,0.3841965876992333
530.951172,0.38663183234794934
532.792969,0.38780163476516494
534.636719,0.3880032255311577
536.478516,0.3875521982748366
538.322266,0.38675162940054064
540.164062,0.3858546123073324
542.003906,0.38501869739272687
543.845703,0.38426986187616863
545.685547,0.3834889301396226
547.525391,0.38241720441061444
549.365234,0.3807107620684652
551.205078,0.37802745512669694
553.044922,0.37412879230024826
554.882812,0.3689642742026547
556.720703,0.3626755860805785
558.558594,0.35556338321029585
560.396484,0.3479934470140215
562.232422,0.3403083530574565
564.068359,0.3327324397720534
565.90625,0.3253586898052006
567.740234,0.31818481191748876
569.576172,0.3110643987325156
571.412109,0.30382262209935984
573.246094,0.296264602675292
575.080078,0.28819286484570483
576.914062,0.2794552789442242
578.746094,0.26996441197517496
580.580078,0.2596642927053858
582.412109,0.248603917352009
584.244141,0.23685716710607532
586.076172,0.22455601464851804
587.90625,0.21188085699824988
589.738281,0.1989918735813214
591.568359,0.18611015588165772
593.398438,0.17340944493548396
595.228516,0.16106068249677494
597.056641,0.14922290513153916
598.886719,0.13798841360602257
600.714844,0.12746768068361522
602.542969,0.11770434276802716
604.371094,0.10872633569714316
606.197266,0.10054563657722548
608.025391,0.09312865124128421
609.851562,0.08646022549991456
611.677734,0.08049076282374626
613.503906,0.07517294607623005
615.328125,0.07046174858381804
617.152344,0.06630205093184421
618.978516,0.06264393380884115
620.800781,0.05945670663595137
622.625,0.05669367644714155
624.449219,0.05432980893639521
626.271484,0.05234635404824787
628.09375,0.050729032176687464
629.916016,0.049476797019429565
631.738281,0.04860109602251821
633.558594,0.0481290166700668
635.380859,0.048105665673989745
637.201172,0.04860163669169601
639.021484,0.049717600390412224
640.839844,0.051587904527784674
642.660156,0.05439087882681271
644.478516,0.05832511670721567
646.296875,0.06360519127260833
648.115234,0.07040552881209235
649.933594,0.07879287619968782
651.75,0.08862855087973687
653.566406,0.09952017904343911
655.382812,0.11075464989599816
657.199219,0.12134386385321497
659.015625,0.1301576848973298
660.830078,0.13613193798740553
662.646484,0.13852867679692557
664.460938,0.13708635150977663
666.275391,0.13211457933935744
668.087891,0.12441396726611617
669.902344,0.11505462773212104
671.714844,0.10520134746591754
673.527344,0.0958397117509833
675.339844,0.08768832748541937
677.150391,0.08116178949229369
678.962891,0.07638522388379052
680.773438,0.07331883496817906
682.583984,0.0718018650224641
684.394531,0.07164278795984165
686.205078,0.07265673609740392
688.013672,0.07468441776803302
689.822266,0.07760464623438162
691.630859,0.08132786942895254
693.439453,0.08579088047617864
695.248047,0.09095041015514195
697.054688,0.09677082749646654
698.861328,0.10323814774476968
700.667969,0.11033944822135691
702.474609,0.11806545407677006
704.28125,0.12640862023749755
706.085938,0.13535161110159957
707.890625,0.14489488175094278
709.695312,0.15502837849073875
711.5,0.1657394882507174
713.304688,0.17701243700093816
715.107422,0.18881475489867566
716.910156,0.2011350367059123
718.712891,0.21394571887572006
720.515625,0.2272147613372841
722.318359,0.24090558131641115
724.119141,0.25496157685523113
725.919922,0.26935179998966247
727.720703,0.2840263774178979
729.521484,0.29893135033415286
731.322266,0.3140090576019072
733.121094,0.329182075526374
734.919922,0.3444033851655116
736.71875,0.35960786125796573
738.517578,0.3747295072089754
740.316406,0.38970265511348917
742.113281,0.40444760733937746
743.910156,0.4189209594914347
745.707031,0.43306951584090614
747.503906,0.4468504866008037
749.300781,0.4602372292591913
751.095703,0.47321435443547794
752.890625,0.48583508004355347
754.685547,0.49820350431530125
756.480469,0.5105358273929039
758.275391,0.5232458351770115
760.068359,0.5370799111863411
761.861328,0.5533600358432054
763.654297,0.5737759511333939
765.447266,0.5976311779498759
767.240234,0.614239264756694
769.03125,0.6111154573144679
770.822266,0.5985411289488068
772.613281,0.5895602854996895
774.404297,0.5867175148568241
776.195312,0.5896652626279152
777.984375,0.5991781903187512
779.773438,0.6184882303813518
781.5625,0.6551196343371903
783.351562,0.7244258924547533
785.140625,0.8486965570505168
786.927734,1.0006116890707342
788.714844,1.0009534885225886
790.501953,0.8518144562458151
792.289062,0.7383889144543915
794.076172,0.6953443621906842
795.861328,0.6997550782976092
797.646484,0.6942169566957793
799.433594,0.6306318793101415
801.216797,0.5555042046523627
803.001953,0.5009745042136184
804.785156,0.4643601536439201
806.570312,0.4386646448569995
808.353516,0.4196802111099225
810.136719,0.40510926092027316
811.917969,0.3937710978526016
813.701172,0.3850051603158489
815.482422,0.37848700741221786
817.263672,0.3740166816988352
819.044922,0.37148445460679563
820.824219,0.3708156970806377
822.605469,0.3719424991199711
824.384766,0.3747858901306497
826.164062,0.37924765627620166
827.943359,0.3851999538179465
829.722656,0.3924821189885577
831.5,0.40089108438560556
833.279297,0.4102232850509337
835.056641,0.4202144073432846
836.832031,0.43060644412118926
838.609375,0.4411651007815679
840.386719,0.45163298178486394
842.162109,0.4617766997015447
843.9375,0.47142084580707355
845.712891,0.4804219586098759
847.488281,0.48868585066599746
849.261719,0.496161832934959
851.035156,0.5028658904043753
852.810547,0.5088544764342664
854.582031,0.5141944038154518
856.355469,0.5190144347032718
858.128906,0.523431361439854
859.900391,0.5275649938253458
861.671875,0.5315348592021993
863.443359,0.5354373066816979
865.214844,0.5393442061092616
866.984375,0.5432948465834019
868.755859,0.5473124050809888
870.525391,0.5513746426519036
872.294922,0.5554481006183991
874.064453,0.5594752565268042
875.832031,0.5633804389329726
877.601562,0.5670932173551902
879.369141,0.5705251142586915
881.136719,0.5736049447530148
882.904297,0.5762679243817687
884.669922,0.5784631372788731
886.4375,0.58016774923574
888.203125,0.5813759829131939
889.96875,0.5821178685714595
891.734375,0.5824548757127743
893.498047,0.58248499153087
895.263672,0.5823436985814096
897.027344,0.5822026709668421
898.791016,0.5822637159528506
900.554688,0.5827484912464161
902.316406,0.5838791147509729
904.080078,0.5858593106085795
905.841797,0.588833217095036
907.603516,0.5928667545205052
909.365234,0.5979128108437783
911.126953,0.6037987672315832
912.886719,0.6102271134578163
914.646484,0.616834488471828
916.408203,0.6232454786264047
918.166016,0.6291346144362675
919.925781,0.6343894240639529
921.685547,0.6391105947802723
923.443359,0.6436496172315957
925.201172,0.6485355487692666
926.958984,0.6542864044478107
928.716797,0.6611814045614953
930.472656,0.6690365053593867
932.230469,0.6771472089242935
933.986328,0.6843407135257978
935.742188,0.6893646727764737
937.496094,0.6912777122898018
939.251953,0.6897792782851171
941.005859,0.6851840625089458
942.761719,0.677969027438223
944.515625,0.6681126425622371
946.267578,0.6545036251517109
948.021484,0.6349116935358735
949.773438,0.6068432315477604
951.527344,0.5685496596935888
953.279297,0.5203285475652444
955.029297,0.464624697968423
956.78125,0.40533391432112875
958.533203,0.346971117624372
960.283203,0.29331036319806103
962.033203,0.2465635567505422
963.783203,0.20750221487624312
965.53125,0.17578257691320232
967.28125,0.15032576629323505
969.029297,0.12998999648655185
970.777344,0.1136273965399812
972.525391,0.1003201023391925
974.273438,0.08936438288604516
976.019531,0.08024876093157111
977.767578,0.07257201307509434
979.513672,0.06607161485784753
981.259766,0.06052971475841129
983.005859,0.05578769484296802
984.75,0.05172667360186969
986.496094,0.04824030947451333
988.240234,0.045258293428351325
989.984375,0.042712709410158076
991.728516,0.04055088659507924
993.470703,0.03873067397898899
995.214844,0.03721090682647945
996.957031,0.03596353414088253
998.699219,0.03495982183730666
1000.441406,0.0341766742001918
1002.181641,0.03359468770136348
1003.923828,0.03319526353793008
1005.664062,0.032964250230768696
1007.404297,0.03288794215879668
1009.144531,0.03295476382795022
1010.884766,0.03315447434463852
1012.623047,0.03347752406404191
1014.363281,0.03391646114557301
1016.101562,0.034462905544431995
1017.839844,0.03511052743802213
1019.576172,0.035852185013014765
1021.314453,0.03668369104215802
1023.050781,0.037597627650738326
1024.787109,0.0385895499323178
1026.523438,0.03965426972728406
1028.259766,0.04078667599944928
1029.996094,0.041981685379839595
1031.730469,0.043232756094959066
1033.464844,0.044536057930493755
1035.199219,0.045886367473122434
1036.933594,0.04727835662727387
1038.667969,0.04870657795953246
1040.400391,0.05016379850838371
1042.134766,0.05164760419140885
1043.867188,0.05314883597980844
1045.599609,0.05466322131012104
1047.330078,0.05618301105774195
1049.0625,0.05770552003469301
1050.792969,0.05922114520608046
1052.523438,0.06072539955793977
1054.253906,0.062212067208527976
1055.984375,0.06367495484849893
1057.712891,0.06510632181122802
1059.443359,0.0665033541582987
1061.171875,0.06785698600223082
1062.900391,0.06916306742752508
1064.628906,0.0704160492140211
1066.355469,0.07160930536946765
1068.083984,0.07274049846757212
1069.810547,0.07380235268257744
1071.537109,0.07479180568608307
1073.263672,0.07570485487500912
1074.990234,0.07653789706104143
1076.714844,0.07728695923629107
1078.439453,0.07795031571043705
1080.164062,0.07852572395539947
1081.888672,0.07901142767317755
1083.613281,0.07940616879827984
1085.337891,0.07970919793775284
1087.060547,0.07992008992031985
1088.783203,0.08003951348123282
1090.505859,0.08006824813197033
1092.228516,0.08000757130851886
1093.951172,0.07985924636519406
1095.671875,0.07962581859712255
1097.392578,0.07930984236625761
1099.113281,0.07891441527186267
1100.833984,0.07844303262758495
1102.554688,0.07789955753766692
1104.273438,0.07728892068366353
1105.992188,0.07661503026944858
1107.712891,0.07588177168013933
1109.429688,0.07509671080560637
1111.148438,0.07426241895311689
1112.867188,0.07338506949502728
1114.583984,0.07247113940441886
1116.300781,0.07152512076757216
1118.017578,0.0705525092821291
1119.734375,0.0695587904028622
1121.449219,0.06855055795112593
1123.166016,0.06753086681668574
1124.880859,0.06650726525462684
1126.595703,0.06548367272309125
1128.310547,0.06446498959762643
1130.025391,0.06345591303807567
1131.738281,0.062462037762565925
1133.451172,0.06148641566357609
1135.164062,0.06053299171360661
1136.876953,0.05960542861537623
1138.589844,0.05870709841089992
1140.302734,0.05784107133427473
1142.013672,0.05701103436023806
1143.724609,0.0562184233473763
1145.435547,0.05546536699232921
1147.146484,0.054753685645318115
1148.855469,0.054085630146857314
1150.566406,0.053460886425331304
1152.275391,0.052881799037263
1153.984375,0.05234826736535754
1155.693359,0.05186065897423157
1157.402344,0.05141908522537082
1159.109375,0.05102384216972164
1160.816406,0.05067404243845297
1162.525391,0.05036879611385666
1164.230469,0.050108313833750695
1165.9375,0.04989068822091624
1167.644531,0.049715145952517324
1169.349609,0.04958057873708659
1171.054688,0.04948540114553334
1172.759766,0.04942814378503452
1174.464844,0.04940724444593273
1176.169922,0.049421063964458035
1177.873047,0.04946782927693969
1179.576172,0.04954579375770144
1181.28125,0.04965331973744142
1182.982422,0.049788190667543794
1184.685547,0.04994901627384451
1186.388672,0.05013384993879928
1188.089844,0.05034064585259845
1189.791016,0.05056783220192601
1191.492188,0.05081366644177881
1193.193359,0.05107644079270015
1194.892578,0.051354161761504584
1196.59375,0.051645849207178976
1198.292969,0.051949268458431654
1199.992188,0.05226323814446855
1201.691406,0.052586307140025476
1203.390625,0.05291708509046806
1205.087891,0.0532538523866065
1206.785156,0.05359572366516616
1208.482422,0.05394150182644066
1210.179688,0.054290053110580494
1211.876953,0.05464030756107238
1213.574219,0.0549912591641084
1215.269531,0.05534156054917009
1216.964844,0.055690736335691236
1218.660156,0.05603796663422964
1220.355469,0.056382490872663754
1222.050781,0.056723604585665686
1223.744141,0.05706027364299764
1225.4375,0.05739229940979897
1227.130859,0.057719140262086466
1228.824219,0.05804030423110051
1230.517578,0.058355346651401595
1232.210938,0.0586638697058063
1233.902344,0.05896517538545187
1235.59375,0.05925931343904561
1237.285156,0.05954601465542373
1238.976562,0.05982504917175072
1240.667969,0.06009622518124826
1242.357422,0.06035908774183311
1244.046875,0.060613834926855174
1245.736328,0.060860380894511526
1247.425781,0.06109867265452841
1249.115234,0.0613286890854921
1250.802734,0.061550188462375116
1252.492188,0.06176372359334023
1254.179688,0.06196886984817142
1255.867188,0.06216597693131043
1257.554688,0.06235517103370796
1259.240234,0.06253640042930313
1260.927734,0.0627102664397281
1262.613281,0.06287657437460971
1264.298828,0.06303576421771025
1265.984375,0.06318809698220448
1267.667969,0.06333369497942595
1269.353516,0.06347320968848795
1271.037109,0.06360665736980693
1272.720703,0.06373456921493904
1274.404297,0.06385733761267481
1276.087891,0.06397538188299992
1277.771484,0.06408914838661431
1279.453125,0.06419898555453135
1281.134766,0.06430552753351973
1282.816406,0.06440930216629455
1284.498047,0.06451086598125311
1286.179688,0.06461080432333981
1287.859375,0.06470961754009041
1289.541016,0.06480817999425008
1291.220703,0.06490693679086333
1292.900391,0.06500670745360988
1294.580078,0.06510822878302217
1296.257812,0.06521214785981581
1297.9375,0.06531950932377058
1299.615234,0.06543089921214762
1301.292969,0.06554731072887142
1302.970703,0.06566965030663821
1304.646484,0.06579870703630118
1306.324219,0.06593576290834419
1308.0,0.06608151744654922
1309.675781,0.06623718353988178
1311.351562,0.0664038605352356
1313.027344,0.06658269031983179
1314.703125,0.06677485799595002
1316.376953,0.06698134370978052
1318.050781,0.06720363458198562
1319.724609,0.06744304826149763
1321.398438,0.06770094997482963
1323.072266,0.06797875272414286
1324.744141,0.06827755680275961
